,gt,time_elapsed,current_time,current_task,emg0,emg1,emg2,emg3,emg4,emg5,emg6,emg7
0,0,2.030869245,20230328142052470,None,28,75,32,29,30,23,100,41
1,0,2.040853739,20230328142052480,None,28,75,32,29,30,23,100,41
2,0,2.050852537,20230328142052490,None,28,75,30,28,28,23,134,46
3,0,2.060850382,20230328142052500,None,30,73,27,28,27,22,121,42
4,0,2.070928812,20230328142052510,None,30,73,27,28,27,22,121,42
5,0,2.080959081,20230328142052520,None,30,73,27,28,27,22,121,42
6,0,2.090959549,20230328142052530,None,30,65,29,25,26,20,108,39
7,0,2.100970983,20230328142052540,None,31,59,32,26,26,23,107,40
8,0,2.110988617,20230328142052550,None,31,59,32,26,26,23,107,40
9,0,2.120961189,20230328142052560,None,31,53,33,27,25,23,123,43
10,0,2.130961179,20230328142052570,None,31,53,33,27,25,23,123,43
11,0,2.141017437,20230328142052580,None,29,52,33,27,26,25,82,37
12,0,2.151028394,20230328142052590,None,29,52,33,27,26,25,82,37
13,0,2.161020517,20230328142052600,None,28,49,33,28,26,26,96,38
14,0,2.171356201,20230328142052610,None,28,49,33,28,26,26,96,38
15,0,2.181043863,20230328142052620,None,28,54,32,27,27,28,95,39
16,0,2.191314459,20230328142052630,None,28,54,32,27,27,28,95,39
17,0,2.201013326,20230328142052640,None,27,59,34,28,31,27,128,42
18,0,2.211020708,20230328142052650,None,27,59,34,28,31,27,128,42
19,0,2.220997333,20230328142052660,None,28,63,34,27,30,27,111,39
20,0,2.231283426,20230328142052670,None,28,63,34,27,30,27,111,39
21,0,2.241030216,20230328142052680,None,28,63,34,27,30,27,111,39
22,0,2.251027107,20230328142052690,None,28,64,40,27,32,27,113,41
23,0,2.261020422,20230328142052700,None,28,68,40,27,31,25,101,40
24,0,2.270997047,20230328142052710,None,28,68,40,27,31,25,101,40
25,0,2.281273365,20230328142052720,None,28,68,40,27,31,25,101,40
26,0,2.291052341,20230328142052730,None,26,66,40,29,31,24,145,41
27,0,2.301058769,20230328142052740,None,28,65,40,28,27,25,117,35
28,0,2.311091423,20230328142052750,None,28,65,40,28,27,25,117,35
29,0,2.321042061,20230328142052760,None,27,73,41,30,27,25,119,33
30,0,2.331008672,20230328142052770,None,27,73,41,30,27,25,119,33
31,0,2.340984106,20230328142052780,None,26,77,36,31,28,26,138,39
32,0,2.350984096,20230328142052790,None,26,77,36,31,28,26,138,39
33,0,2.360968351,20230328142052800,None,26,77,36,31,28,26,138,39
34,0,2.370969772,20230328142052810,None,24,79,39,31,29,27,139,42
35,0,2.381030798,20230328142052820,None,26,78,41,32,27,25,99,41
36,0,2.391022682,20230328142052830,None,26,78,41,32,27,25,99,41
37,0,2.400996446,20230328142052840,None,22,78,39,33,28,26,129,45
38,0,2.411003589,20230328142052850,None,22,78,39,33,28,26,129,45
39,0,2.421041965,20230328142052860,None,22,78,39,33,28,26,129,45
40,0,2.431008339,20230328142052870,None,28,66,42,31,29,26,129,46
41,0,2.441338777,20230328142052880,None,28,60,41,31,24,26,106,37
42,0,2.450997591,20230328142052890,None,28,60,41,31,24,26,106,37
43,0,2.461106777,20230328142052900,None,30,59,38,31,25,27,108,42
44,0,2.470998764,20230328142052910,None,30,59,38,31,25,27,108,42
45,0,2.481079817,20230328142052920,None,31,55,38,29,26,28,103,40
46,0,2.490936041,20230328142052930,None,31,55,38,29,26,28,103,40
47,0,2.501183748,20230328142052940,None,33,52,39,30,27,26,86,44
48,0,2.510990381,20230328142052950,None,33,52,39,30,27,26,86,44
49,0,2.52101922,20230328142052960,None,29,55,36,31,29,24,91,44
50,0,2.5310101510000003,20230328142052970,None,29,55,36,31,29,24,91,44
51,0,2.541024685,20230328142052980,None,29,55,36,31,29,24,91,44
52,0,2.5509560110000002,20230328142052990,None,31,59,36,31,31,23,96,45
53,0,2.560949802,20230328142053000,None,29,56,36,30,29,23,99,43
54,0,2.570903539,20230328142053010,None,29,56,36,30,29,23,99,43
55,0,2.5809473990000003,20230328142053020,None,27,55,34,31,31,21,97,42
56,0,2.590907097,20230328142053030,None,27,55,34,31,31,21,97,42
57,0,2.600909233,20230328142053040,None,28,55,32,29,28,22,93,39
58,0,2.610894918,20230328142053050,None,28,55,32,29,28,22,93,39
59,0,2.620905161,20230328142053060,None,29,59,35,28,27,25,89,39
60,0,2.630918979,20230328142053070,None,29,59,35,28,27,25,89,39
61,0,2.640929222,20230328142053080,None,27,62,37,29,25,25,93,38
62,0,2.650899887,20230328142053090,None,27,62,37,29,25,25,93,38
63,0,2.660957098,20230328142053100,None,27,62,37,29,25,25,93,38
64,0,2.6709961890000002,20230328142053110,None,30,68,34,29,28,24,106,38
65,0,2.6809680460000003,20230328142053120,None,30,77,37,31,24,25,124,39
66,0,2.690951824,20230328142053130,None,30,77,37,31,24,25,124,39
67,0,2.700921535,20230328142053140,None,29,76,36,30,24,27,115,34
68,0,2.710947275,20230328142053150,None,29,76,36,30,24,27,115,34
69,0,2.720967054,20230328142053160,None,29,76,36,30,24,27,115,34
70,0,2.73096466,20230328142053170,None,29,73,33,30,25,24,123,36
71,0,2.740997314,20230328142053180,None,29,71,32,31,26,26,132,43
72,0,2.7509706019999998,20230328142053190,None,29,71,32,31,26,26,132,43
73,0,2.76096487,20230328142053200,None,26,64,34,32,23,26,119,41
74,0,2.770969629,20230328142053210,None,26,64,34,32,23,26,119,41
75,0,2.780962705,20230328142053220,None,26,64,34,32,23,26,119,41
76,0,2.7909450529999997,20230328142053230,None,29,58,35,28,24,26,103,39
77,0,2.8009605410000002,20230328142053240,None,27,62,35,33,27,24,96,41
78,0,2.810948133,20230328142053250,None,27,62,35,33,27,24,96,41
79,0,2.820988178,20230328142053260,None,28,69,36,31,25,25,116,42
80,0,2.830970525,20230328142053270,None,28,69,36,31,25,25,116,42
81,0,2.84095478,20230328142053280,None,28,69,36,31,25,25,116,42
82,0,2.850983381,20230328142053290,None,29,67,35,28,26,23,103,41
83,0,2.8609664439999998,20230328142053300,None,30,68,35,30,27,24,103,38
84,0,2.870949268,20230328142053310,None,30,68,35,30,27,24,103,38
85,0,2.88097167,20230328142053320,None,28,63,33,31,28,25,102,40
86,0,2.890967846,20230328142053330,None,28,63,33,31,28,25,102,40
87,0,2.901105165,20230328142053340,None,28,65,35,28,28,24,125,42
88,0,2.910896301,20230328142053350,None,28,65,35,28,28,24,125,42
89,0,2.9208953380000002,20230328142053360,None,28,57,36,30,28,23,96,37
90,0,2.930887937,20230328142053370,None,28,57,36,30,28,23,96,37
91,0,2.940892935,20230328142053380,None,27,55,38,31,27,23,101,35
92,0,2.950863361,20230328142053390,None,27,55,38,31,27,23,101,35
93,0,2.960886478,20230328142053400,None,28,52,44,27,28,23,102,36
94,0,2.9709441659999998,20230328142053410,None,28,52,44,27,28,23,102,36
95,0,2.980946779,20230328142053420,None,26,54,44,26,27,21,121,41
96,0,2.990898132,20230328142053430,None,26,54,44,26,27,21,121,41
97,0,3.000906706,20230328142053440,None,25,49,44,27,30,25,99,37
98,0,3.010904073,20230328142053450,None,25,49,44,27,30,25,99,37
99,0,3.020943641,20230328142053460,None,25,49,44,27,30,25,99,37
100,0,3.030949831,20230328142053470,None,24,58,46,25,32,26,100,37
101,0,3.04095459,20230328142053480,None,24,58,46,25,32,26,100,37
102,0,3.050955772,20230328142053490,None,25,62,45,23,31,26,89,39
103,0,3.060946941,20230328142053500,None,24,66,39,25,33,25,102,41
104,0,3.070943832,20230328142053510,None,24,66,39,25,33,25,102,41
105,0,3.080950737,20230328142053520,None,24,66,39,25,33,25,102,41
106,0,3.091152191,20230328142053530,None,24,67,37,28,34,24,76,35
107,0,3.100924968,20230328142053540,None,26,74,37,27,33,23,75,34
108,0,3.110964298,20230328142053550,None,26,74,37,27,33,23,75,34
109,0,3.120949983,20230328142053560,None,24,66,31,27,31,22,76,33
110,0,3.130979061,20230328142053570,None,24,66,31,27,31,22,76,33
111,0,3.140981674,20230328142053580,None,26,64,34,26,31,22,99,33
112,0,3.150961637,20230328142053590,None,26,64,34,26,31,22,99,33
113,0,3.161005497,20230328142053600,None,24,62,34,30,28,24,85,31
114,0,3.17098403,20230328142053610,None,24,62,34,30,28,24,85,31
115,0,3.181001186,20230328142053620,None,28,62,34,28,28,25,85,31
116,0,3.191068172,20230328142053630,None,28,62,34,28,28,25,85,31
117,0,3.201048374,20230328142053640,None,28,62,34,28,28,25,85,31
118,0,3.210948944,20230328142053650,None,28,51,34,28,26,24,96,31
119,0,3.220921755,20230328142053660,None,27,61,34,27,28,25,94,31
120,0,3.230918646,20230328142053670,None,27,61,34,27,28,25,94,31
121,0,3.240920782,20230328142053680,None,28,65,32,29,27,24,107,33
122,0,3.250891447,20230328142053690,None,28,65,32,29,27,24,107,33
123,0,3.2609107489999998,20230328142053700,None,28,65,32,29,27,24,107,33
124,0,3.270936966,20230328142053710,None,27,64,33,24,27,24,106,33
125,0,3.280967712,20230328142053720,None,27,64,33,24,27,24,106,33
126,0,3.290984392,20230328142053730,None,22,66,40,26,25,23,114,33
127,0,3.300972938,20230328142053740,None,23,69,39,24,28,24,107,37
128,0,3.310972213,20230328142053750,None,23,69,39,24,28,24,107,37
129,0,3.320960283,20230328142053760,None,23,69,39,24,28,24,107,37
130,0,3.330954551,20230328142053770,None,25,63,40,25,26,24,130,40
131,0,3.340967655,20230328142053780,None,25,63,40,25,26,24,130,40
132,0,3.3509669300000002,20230328142053790,None,25,63,40,25,26,24,130,40
133,0,3.360961675,20230328142053800,None,25,63,40,25,26,24,130,40
134,0,3.370981455,20230328142053810,None,26,58,42,25,29,23,103,40
135,0,3.380971431,20230328142053820,None,27,57,37,23,31,22,99,41
136,0,3.390962839,20230328142053830,None,27,57,37,23,31,22,99,41
137,0,3.400976896,20230328142053840,None,27,57,37,23,31,22,99,41
138,0,3.410962581,20230328142053850,None,27,62,39,24,28,22,114,44
139,0,3.420961857,20230328142053860,None,27,70,41,24,28,23,91,44
140,0,3.430988788,20230328142053870,None,27,70,41,24,28,23,91,44
141,0,3.440965891,20230328142053880,None,27,70,41,24,28,23,91,44
142,0,3.450956106,20230328142053890,None,29,73,39,28,28,22,88,38
143,0,3.460970163,20230328142053900,None,29,73,39,28,28,22,88,38
144,0,3.471012592,20230328142053910,None,27,77,40,25,28,25,106,45
145,0,3.480972051,20230328142053920,None,27,80,38,26,26,25,109,45
146,0,3.490969419,20230328142053930,None,27,80,38,26,26,25,109,45
147,0,3.5009655950000003,20230328142053940,None,27,80,38,26,26,25,109,45
148,0,3.5109667780000002,20230328142053950,None,26,78,37,30,28,24,93,42
149,0,3.5210173129999998,20230328142053960,None,26,78,37,30,28,24,93,42
150,0,3.531012058,20230328142053970,None,26,78,37,30,28,24,93,42
151,0,3.5413212769999998,20230328142053980,None,25,72,33,31,25,24,116,50
152,0,3.551242828,20230328142053990,None,25,72,33,31,25,24,116,50
153,0,3.561131477,20230328142054000,None,25,72,33,31,25,24,116,50
154,0,3.571580887,20230328142054010,None,25,65,33,33,25,24,101,46
155,0,3.581230402,20230328142054020,None,25,65,33,33,25,24,101,46
156,0,3.591077566,20230328142054030,None,24,58,31,32,27,24,102,44
157,0,3.60088706,20230328142054040,None,27,60,31,27,27,24,99,44
158,0,3.61094737,20230328142054050,None,27,60,31,27,27,24,99,44
159,0,3.620970487,20230328142054060,None,27,60,31,27,27,24,99,44
160,0,3.630959034,20230328142054070,None,26,57,34,29,27,27,120,40
161,0,3.640983104,20230328142054080,None,26,57,34,29,27,27,120,40
162,0,3.650933742,20230328142054090,None,25,50,32,28,24,27,97,36
163,0,3.660927534,20230328142054100,None,28,51,32,28,25,26,96,36
164,0,3.670936584,20230328142054110,None,28,51,32,28,25,26,96,36
165,0,3.680964231,20230328142054120,None,28,51,32,28,25,26,96,36
166,0,3.690950155,20230328142054130,None,28,56,34,28,24,27,84,37
167,0,3.700968027,20230328142054140,None,28,56,34,28,24,27,84,37
168,0,3.710974693,20230328142054150,None,27,55,34,28,26,27,130,42
169,0,3.720895529,20230328142054160,None,28,57,30,26,25,22,113,40
170,0,3.730899095,20230328142054170,None,28,57,30,26,25,22,113,40
171,0,3.740878105,20230328142054180,None,29,57,32,25,26,24,115,38
172,0,3.750860452,20230328142054190,None,29,57,32,25,26,24,115,38
173,0,3.760861158,20230328142054200,None,29,57,32,25,26,24,115,38
174,0,3.770928621,20230328142054210,None,29,57,32,25,26,24,115,38
175,0,3.78091073,20230328142054220,None,25,70,36,21,28,25,136,43
176,0,3.7909355160000002,20230328142054230,None,25,70,36,21,28,25,136,43
177,0,3.800970793,20230328142054240,None,25,70,36,21,28,25,136,43
178,0,3.811001062,20230328142054250,None,24,74,33,21,25,25,111,39
179,0,3.820956468,20230328142054260,None,24,74,33,21,25,25,111,39
180,0,3.830963135,20230328142054270,None,22,78,34,22,25,26,107,38
181,0,3.84107542,20230328142054280,None,21,86,37,24,25,24,105,40
182,0,3.850942135,20230328142054290,None,21,86,37,24,25,24,105,40
183,0,3.860881805,20230328142054300,None,21,86,37,24,25,24,105,40
184,0,3.8709552289999998,20230328142054310,None,25,87,34,26,24,26,121,44
185,0,3.88091135,20230328142054320,None,25,87,34,26,24,26,121,44
186,0,3.890885591,20230328142054330,None,24,81,32,31,26,28,101,40
187,0,3.900885105,20230328142054340,None,24,73,34,31,27,28,93,40
188,0,3.91088295,20230328142054350,None,24,73,34,31,27,28,93,40
189,0,3.9208483689999998,20230328142054360,None,24,67,35,31,29,28,97,40
190,0,3.930870771,20230328142054370,None,24,67,35,31,29,28,97,40
191,0,3.940904379,20230328142054380,None,24,67,35,31,29,28,97,40
192,0,3.950915098,20230328142054390,None,24,61,32,29,31,30,108,43
193,0,3.960891485,20230328142054400,None,21,61,32,30,33,29,91,39
194,0,3.9708943359999997,20230328142054410,None,21,61,32,30,33,29,91,39
195,0,3.980926037,20230328142054420,None,21,61,32,30,33,29,91,39
196,0,3.990915775,20230328142054430,None,24,58,34,32,30,29,95,41
197,0,4.000887871,20230328142054440,None,24,58,34,32,30,29,95,41
198,0,4.01095891,20230328142054450,None,25,58,33,34,33,30,108,41
199,0,4.021282673,20230328142054460,None,26,65,30,32,32,30,104,42
200,0,4.031004429,20230328142054470,None,26,65,30,32,32,30,104,42
201,0,4.040964126,20230328142054480,None,28,62,32,33,30,28,91,37
202,0,4.050969362,20230328142054490,None,28,62,32,33,30,28,91,37
203,0,4.060970068,20230328142054500,None,28,62,32,33,30,28,91,37
204,0,4.071012974,20230328142054510,None,28,62,32,33,30,28,91,37
205,0,4.080987692,20230328142054520,None,28,55,31,26,30,25,96,38
206,0,4.090951204,20230328142054530,None,28,55,31,26,30,25,96,38
207,0,4.100965023,20230328142054540,None,28,56,34,22,25,23,93,39
208,0,4.11097002,20230328142054550,None,28,56,34,22,25,23,93,39
209,0,4.120970487,20230328142054560,None,28,56,34,22,25,23,93,39
210,0,4.130962133,20230328142054570,None,28,56,34,22,25,23,93,39
211,0,4.140969753,20230328142054580,None,29,52,34,25,27,26,97,40
212,0,4.150967598,20230328142054590,None,29,52,34,25,27,26,97,40
213,0,4.160970926,20230328142054600,None,28,53,35,26,28,27,102,39
214,0,4.170950412,20230328142054610,None,28,53,35,26,28,27,102,39
215,0,4.180962801,20230328142054620,None,28,53,35,26,28,27,102,39
216,0,4.190958261,20230328142054630,None,28,53,35,26,28,27,102,39
217,0,4.200970173,20230328142054640,None,28,56,34,26,27,25,110,38
218,0,4.210960865,20230328142054650,None,29,54,34,27,29,24,93,40
219,0,4.220958233,20230328142054660,None,29,54,34,27,29,24,93,40
220,0,4.230945587,20230328142054670,None,29,56,32,28,26,23,89,38
221,0,4.240968227,20230328142054680,None,29,56,32,28,26,23,89,38
222,0,4.250948906,20230328142054690,None,25,61,32,28,28,22,111,40
223,0,4.260962248,20230328142054700,None,25,61,32,28,28,22,111,40
224,0,4.270969629,20230328142054710,None,25,61,31,29,26,19,98,39
225,0,4.280964851,20230328142054720,None,25,61,31,29,26,19,98,39
226,0,4.290886879,20230328142054730,None,27,64,31,30,25,20,95,38
227,0,4.3009018900000004,20230328142054740,None,27,64,31,30,25,20,95,38
228,0,4.310906648,20230328142054750,None,24,65,30,29,23,22,94,36
229,0,4.320954084,20230328142054760,None,24,65,30,29,23,22,94,36
230,0,4.330984592,20230328142054770,None,25,73,32,30,25,22,92,38
231,0,4.340874433,20230328142054780,None,26,70,31,29,23,24,88,39
232,0,4.350880623,20230328142054790,None,26,70,31,29,23,24,88,39
233,0,4.360892057,20230328142054800,None,26,70,31,29,23,24,88,39
234,0,4.370884657,20230328142054810,None,26,67,31,27,24,26,88,38
235,0,4.380892038,20230328142054820,None,26,67,31,27,24,26,88,38
236,0,4.390886307,20230328142054830,None,24,64,33,28,27,26,83,39
237,0,4.4008557790000005,20230328142054840,None,24,64,33,28,27,26,83,39
238,0,4.410886049,20230328142054850,None,25,63,32,29,28,27,82,39
239,0,4.42146635,20230328142054860,None,25,63,32,29,28,27,82,39
240,0,4.4310395719999995,20230328142054870,None,25,56,34,31,28,29,104,41
241,0,4.440973997,20230328142054880,None,25,56,34,31,28,29,104,41
242,0,4.450959921,20230328142054890,None,25,51,38,34,30,29,92,39
243,0,4.461021423,20230328142054900,None,25,51,38,34,30,29,92,39
244,0,4.470946789,20230328142054910,None,27,57,39,35,30,27,96,40
245,0,4.480956316,20230328142054920,None,27,57,39,35,30,27,96,40
246,0,4.491016626,20230328142054930,None,27,60,41,35,31,28,101,39
247,0,4.500887394,20230328142054940,None,27,60,41,35,31,28,101,39
248,0,4.510881185,20230328142054950,None,28,62,44,35,32,25,123,50
249,0,4.520875931,20230328142054960,None,28,62,44,35,32,25,123,50
250,0,4.53088665,20230328142054970,None,28,65,40,33,33,24,107,47
251,0,4.540884733,20230328142054980,None,28,65,40,33,33,24,107,47
252,0,4.5509166709999995,20230328142054990,None,27,74,37,33,33,24,103,47
253,0,4.560900449,20230328142055000,None,27,74,37,33,33,24,103,47
254,0,4.570890665,20230328142055010,None,25,78,37,35,32,25,103,50
255,0,4.580893039,20230328142055020,None,25,78,37,35,32,25,103,50
256,0,4.590883255,20230328142055030,None,23,79,34,32,31,27,96,49
257,0,4.600904941,20230328142055040,None,23,79,34,32,31,27,96,49
258,0,4.610913276,20230328142055050,None,20,80,37,34,29,27,103,42
259,0,4.620890856,20230328142055060,None,20,80,37,34,29,27,103,42
260,0,4.6308918,20230328142055070,None,23,81,37,32,27,26,103,42
261,0,4.640929937,20230328142055080,None,23,81,37,32,27,26,103,42
262,0,4.650907993,20230328142055090,None,23,74,37,31,27,28,104,40
263,0,4.660905122,20230328142055100,None,23,74,37,31,27,28,104,40
264,0,4.670905113,20230328142055110,None,23,74,37,31,27,28,104,40
265,0,4.680894375,20230328142055120,None,23,70,37,32,26,29,100,38
266,0,4.690910816,20230328142055130,None,24,65,36,33,24,27,110,39
267,0,4.700952291,20230328142055140,None,24,65,36,33,24,27,110,39
268,0,4.710974693,20230328142055150,None,26,64,30,29,25,28,95,36
269,0,4.720878362,20230328142055160,None,26,64,30,29,25,28,95,36
270,0,4.730892658,20230328142055170,None,23,60,31,30,27,25,96,37
271,0,4.740914821,20230328142055180,None,23,60,31,30,27,25,96,37
272,0,4.750898838,20230328142055190,None,24,59,32,30,26,23,92,36
273,0,4.760897636,20230328142055200,None,21,58,30,26,30,22,96,36
274,0,4.770910024,20230328142055210,None,21,58,30,26,30,22,96,36
275,0,4.780921459,20230328142055220,None,21,58,30,26,30,22,96,36
276,0,4.790889024,20230328142055230,None,21,58,30,26,30,22,96,36
277,0,4.800940275,20230328142055240,None,22,61,29,29,30,24,103,41
278,0,4.810905695,20230328142055250,None,24,59,31,30,30,24,99,43
279,0,4.820897579,20230328142055260,None,26,66,34,28,30,25,99,42
280,0,4.830896616,20230328142055270,None,26,66,34,28,30,25,99,42
281,0,4.841025114,20230328142055280,None,26,66,34,28,30,25,99,42
282,0,4.850985765,20230328142055290,None,25,63,35,28,31,25,100,43
283,0,4.860972881,20230328142055300,None,25,63,35,28,31,25,100,43
284,0,4.8709595199999995,20230328142055310,None,26,65,35,27,27,25,111,45
285,0,4.881019115,20230328142055320,None,26,65,35,27,27,25,111,45
286,0,4.891040563,20230328142055330,None,25,65,35,28,29,24,109,41
287,0,4.900920391,20230328142055340,None,25,65,35,28,29,24,109,41
288,0,4.9109442229999996,20230328142055350,None,25,65,35,28,29,24,109,41
289,0,4.921289921,20230328142055360,None,24,67,36,28,30,25,100,41
290,0,4.931007385,20230328142055370,None,22,61,33,32,28,24,97,42
291,0,4.94096899,20230328142055380,None,22,75,36,33,26,24,108,43
292,0,4.951030016,20230328142055390,None,22,75,36,33,26,24,108,43
293,0,4.961004019,20230328142055400,None,22,75,36,33,26,24,108,43
294,0,4.970937252,20230328142055410,None,22,75,36,33,26,24,108,43
295,0,4.981234312,20230328142055420,None,22,74,37,36,29,24,115,45
296,0,4.9912307259999995,20230328142055430,None,22,81,40,35,28,23,98,46
297,0,5.001025438,20230328142055440,None,22,81,40,35,28,23,98,46
298,0,5.010925054,20230328142055450,None,21,79,39,35,26,22,97,43
299,0,5.020920038,20230328142055460,None,21,79,39,35,26,22,97,43
300,0,5.030952453,20230328142055470,None,21,79,39,35,26,22,97,43
301,0,5.040987968,20230328142055480,None,21,80,39,34,30,26,108,44
302,0,5.050950289,20230328142055490,None,22,69,36,31,31,28,110,42
303,0,5.061071157,20230328142055500,None,22,70,34,30,28,26,89,40
304,0,5.0709517,20230328142055510,None,22,70,34,30,28,26,89,40
305,0,5.080943823,20230328142055520,None,22,70,34,30,28,26,89,40
306,0,5.090945482,20230328142055530,None,23,61,31,29,28,26,88,40
307,0,5.100960016,20230328142055540,None,23,61,31,29,28,26,88,40
308,0,5.1109061239999996,20230328142055550,None,23,62,31,29,30,28,94,37
309,0,5.120893478,20230328142055560,None,23,62,31,29,30,28,94,37
310,0,5.130896091,20230328142055570,None,26,60,36,29,25,27,96,38
311,0,5.1408813,20230328142055580,None,26,60,36,29,25,27,96,38
312,0,5.150888681,20230328142055590,None,25,63,36,30,27,25,86,39
313,0,5.160896539,20230328142055600,None,25,63,36,30,27,25,86,39
314,0,5.17090106,20230328142055610,None,26,59,36,32,29,27,87,35
315,0,5.180894613,20230328142055620,None,26,59,36,32,29,27,87,35
316,0,5.190894127,20230328142055630,None,27,63,37,30,29,28,87,38
317,0,5.200891018,20230328142055640,None,27,63,37,30,29,28,87,38
318,0,5.210954189,20230328142055650,None,26,68,36,30,29,25,99,40
319,0,5.220898866,20230328142055660,None,26,68,36,30,29,25,99,40
320,0,5.230892181,20230328142055670,None,24,70,37,30,30,23,98,38
321,0,5.24089098,20230328142055680,None,24,70,37,30,30,23,98,38
322,0,5.2508978840000005,20230328142055690,None,24,64,41,31,28,24,95,36
323,0,5.260958671,20230328142055700,None,24,64,41,31,28,24,95,36
324,0,5.270923376,20230328142055710,None,24,70,41,28,27,24,92,37
325,0,5.280891657,20230328142055720,None,24,70,41,28,27,24,92,37
326,0,5.291129589,20230328142055730,None,23,71,43,30,28,24,96,36
327,0,5.300920486,20230328142055740,None,23,71,43,30,28,24,96,36
328,0,5.310979843,20230328142055750,None,24,75,46,29,26,25,98,35
329,0,5.320899486,20230328142055760,None,24,75,46,29,26,25,98,35
330,0,5.330889463,20230328142055770,None,24,75,46,29,26,25,98,35
331,0,5.340894937,20230328142055780,None,24,73,44,27,24,25,89,34
332,0,5.350893497,20230328142055790,None,24,78,42,25,25,26,91,35
333,0,5.360889911,20230328142055800,None,24,78,42,25,25,26,91,35
334,0,5.370950937,20230328142055810,None,25,77,43,26,26,23,112,37
335,0,5.3808918,20230328142055820,None,25,77,43,26,26,23,112,37
336,0,5.390926838,20230328142055830,None,25,77,41,27,24,23,110,34
337,0,5.400906086,20230328142055840,None,25,77,41,27,24,23,110,34
338,0,5.410873174,20230328142055850,None,25,70,38,28,27,23,92,30
339,0,5.420885324,20230328142055860,None,25,70,38,28,27,23,92,30
340,0,5.430902004,20230328142055870,None,26,68,35,28,27,23,99,31
341,0,5.440899849,20230328142055880,None,26,68,35,28,27,23,99,31
342,0,5.450897693,20230328142055890,None,28,68,35,28,27,23,111,36
343,0,5.460892677,20230328142055900,None,28,68,35,28,27,23,111,36
344,0,5.470891714,20230328142055910,None,25,62,34,28,25,25,92,34
345,0,5.480885744,20230328142055920,None,25,62,34,28,25,25,92,34
346,0,5.490891933,20230328142055930,None,26,55,40,27,25,24,94,37
347,0,5.500890732,20230328142055940,None,26,55,40,27,25,24,94,37
348,0,5.510924339,20230328142055950,None,26,55,40,27,25,24,94,37
349,0,5.520891666,20230328142055960,None,26,59,41,30,25,24,111,38
350,0,5.5308959479999995,20230328142055970,None,27,65,43,30,25,23,118,43
351,0,5.540905952,20230328142055980,None,27,65,43,30,25,23,118,43
352,0,5.550910234,20230328142055990,None,24,60,42,31,27,23,105,39
353,0,5.560901403,20230328142056000,None,24,60,42,31,27,23,105,39
354,0,5.570923328,20230328142056010,None,26,64,43,30,29,23,107,38
355,0,5.580905914,20230328142056020,None,26,64,43,30,29,23,107,38
356,0,5.590981483,20230328142056030,None,25,64,40,30,29,25,118,38
357,0,5.600960016,20230328142056040,None,25,64,40,30,29,25,118,38
358,0,5.610913276,20230328142056050,None,25,64,40,30,29,25,118,38
359,0,5.620892763,20230328142056060,None,26,55,38,27,28,27,111,38
360,0,5.630893707,20230328142056070,None,26,55,38,27,28,27,111,38
361,0,5.640891552,20230328142056080,None,24,52,42,29,29,26,95,31
362,0,5.65089035,20230328142056090,None,25,56,41,29,29,26,93,32
363,0,5.661055088,20230328142056100,None,25,56,41,29,29,26,93,32
364,0,5.671040296,20230328142056110,None,26,61,41,29,28,24,89,38
365,0,5.680918693,20230328142056120,None,26,61,41,29,28,24,89,38
366,0,5.690896988,20230328142056130,None,27,67,38,27,28,24,109,40
367,0,5.700892925,20230328142056140,None,27,67,38,27,28,24,109,40
368,0,5.710907697,20230328142056150,None,26,70,41,28,30,23,99,39
369,0,5.720900774,20230328142056160,None,26,70,41,28,30,23,99,39
370,0,5.730917454,20230328142056170,None,27,69,32,25,30,26,101,40
371,0,5.74091053,20230328142056180,None,27,69,32,25,30,26,101,40
372,0,5.7508933540000005,20230328142056190,None,28,68,34,24,29,26,109,40
373,0,5.760943413,20230328142056200,None,28,68,34,24,29,26,109,40
374,0,5.7709457870000005,20230328142056210,None,27,69,37,24,29,26,125,43
375,0,5.780921936,20230328142056220,None,27,69,37,24,29,26,125,43
376,0,5.790894747,20230328142056230,None,27,65,37,27,28,27,107,38
377,0,5.800943136,20230328142056240,None,27,65,37,27,28,27,107,38
378,0,5.81085515,20230328142056250,None,27,69,37,30,26,25,106,38
379,0,5.820920944,20230328142056260,None,27,69,37,30,26,25,106,38
380,0,5.830903053,20230328142056270,None,27,72,37,30,26,25,105,39
381,0,5.840884447,20230328142056280,None,27,72,37,30,26,25,105,39
382,0,5.850886821,20230328142056290,None,28,71,42,35,25,25,117,43
383,0,5.8608970639999995,20230328142056300,None,28,71,42,35,25,25,117,43
384,0,5.870915174,20230328142056310,None,28,71,42,35,25,25,117,43
385,0,5.880902052,20230328142056320,None,30,65,37,35,25,25,108,41
386,0,5.890897035,20230328142056330,None,28,63,38,35,28,22,94,41
387,0,5.90088892,20230328142056340,None,28,63,38,35,28,22,94,41
388,0,5.9109408850000005,20230328142056350,None,28,57,34,34,26,25,96,42
389,0,5.92092061,20230328142056360,None,28,57,34,34,26,25,96,42
390,0,5.930920601,20230328142056370,None,29,54,37,34,28,23,122,44
391,0,5.940932512,20230328142056380,None,29,54,37,34,28,23,122,44
392,0,5.950911045,20230328142056390,None,29,59,32,30,29,25,112,43
393,0,5.960904121,20230328142056400,None,29,59,32,30,29,25,112,43
394,0,5.970896959,20230328142056410,None,26,58,35,29,29,26,105,41
395,0,5.980944395,20230328142056420,None,26,58,35,29,29,26,105,41
396,0,5.990939617,20230328142056430,None,26,58,35,29,29,26,105,41
397,0,6.000915289,20230328142056440,None,26,58,33,27,28,27,115,43
398,0,6.010890007,20230328142056450,None,28,60,35,25,29,27,128,43
399,0,6.021396398,20230328142056460,None,28,60,35,25,29,27,128,43
400,0,6.030997276,20230328142056470,None,25,66,34,26,26,27,114,40
401,0,6.040941,20230328142056480,None,25,66,34,26,26,27,114,40
402,0,6.050910711,20230328142056490,None,25,66,34,26,26,27,114,40
403,0,6.060917616,20230328142056500,None,26,71,33,26,28,25,107,43
404,0,6.070899248,20230328142056510,None,24,73,31,27,29,25,110,40
405,0,6.080893516,20230328142056520,None,24,73,31,27,29,25,110,40
406,0,6.090907335,20230328142056530,None,26,77,31,27,29,25,114,41
407,0,6.100908518,20230328142056540,None,26,77,31,27,29,25,114,41
408,0,6.110955477,20230328142056550,None,26,77,31,27,29,25,114,41
409,0,6.120985746,20230328142056560,None,26,77,34,30,28,23,103,40
410,0,6.130962133,20230328142056570,None,27,71,32,29,29,24,92,41
411,0,6.140974521,20230328142056580,None,27,71,32,29,29,24,92,41
412,0,6.150909662,20230328142056590,None,27,71,32,29,29,24,92,41
413,0,6.160913706,20230328142056600,None,24,60,31,28,28,24,91,40
414,0,6.170895338,20230328142056610,None,24,60,31,28,28,24,91,40
415,0,6.180963039,20230328142056620,None,23,56,31,29,28,24,113,43
416,0,6.191027164,20230328142056630,None,23,49,31,28,27,24,99,39
417,0,6.2015028,20230328142056640,None,23,49,31,28,27,24,99,39
418,0,6.210987806,20230328142056650,None,22,48,29,29,27,24,104,40
419,0,6.2210152149999995,20230328142056660,None,22,48,29,29,27,24,104,40
420,0,6.230989217,20230328142056670,None,22,48,29,29,27,24,104,40
421,0,6.240955591,20230328142056680,None,26,54,29,29,26,23,103,41
422,0,6.250935077,20230328142056690,None,28,54,36,29,26,23,119,44
423,0,6.261078357,20230328142056700,None,28,54,36,29,26,23,119,44
424,0,6.270995378,20230328142056710,None,30,53,38,29,25,27,97,39
425,0,6.28121233,20230328142056720,None,30,53,38,29,25,27,97,39
426,0,6.291151046,20230328142056730,None,30,53,38,29,25,27,97,39
427,0,6.300974846,20230328142056740,None,29,52,39,30,26,26,104,40
428,0,6.311094999,20230328142056750,None,28,63,40,28,26,26,94,38
429,0,6.320911884,20230328142056760,None,28,63,40,28,26,26,94,38
430,0,6.330889225,20230328142056770,None,26,60,44,27,30,25,104,42
431,0,6.340915918,20230328142056780,None,26,60,44,27,30,25,104,42
432,0,6.350905895,20230328142056790,None,26,60,44,27,30,25,104,42
433,0,6.360940456,20230328142056800,None,26,62,43,26,28,27,89,37
434,0,6.370886802,20230328142056810,None,28,62,42,27,26,22,88,39
435,0,6.380986452,20230328142056820,None,28,62,42,27,26,22,88,39
436,0,6.391239404,20230328142056830,None,28,64,41,26,27,24,89,40
437,0,6.400974273,20230328142056840,None,28,64,41,26,27,24,89,40
438,0,6.410940408,20230328142056850,None,28,64,41,26,27,24,89,40
439,0,6.421184778,20230328142056860,None,29,58,41,26,27,24,110,43
440,0,6.431006431,20230328142056870,None,29,61,36,28,23,25,101,39
441,0,6.440999508,20230328142056880,None,29,61,36,28,23,25,101,39
442,0,6.450985908,20230328142056890,None,29,67,36,29,27,24,99,40
443,0,6.4609131810000004,20230328142056900,None,29,67,36,29,27,24,99,40
444,0,6.470920086,20230328142056910,None,29,67,36,29,27,24,99,40
445,0,6.480965376,20230328142056920,None,26,71,37,27,27,24,97,39
446,0,6.490970373,20230328142056930,None,26,75,38,30,29,24,117,42
447,0,6.500908851,20230328142056940,None,26,75,38,30,29,24,117,42
448,0,6.510938644,20230328142056950,None,26,79,42,33,28,25,103,41
449,0,6.5212752819999995,20230328142056960,None,26,79,42,33,28,25,103,41
450,0,6.531019926,20230328142056970,None,26,79,42,33,28,25,103,41
451,0,6.54105854,20230328142056980,None,26,76,49,34,30,24,107,45
452,0,6.55102396,20230328142056990,None,24,76,55,35,28,23,123,52
453,0,6.560944319,20230328142057000,None,24,76,55,35,28,23,123,52
454,0,6.571003914,20230328142057010,None,24,76,55,35,28,23,123,52
455,0,6.581045389,20230328142057020,None,24,73,69,38,27,23,136,67
456,0,6.590952635,20230328142057030,None,24,73,69,38,27,23,136,67
457,0,6.601005316,20230328142057040,None,36,67,71,37,26,23,114,67
458,0,6.610961437,20230328142057050,None,37,61,83,33,25,23,111,180
459,0,6.621294737,20230328142057060,None,37,61,83,33,25,23,111,180
460,0,6.63105464,20230328142057070,None,38,61,96,35,23,27,129,188
461,0,6.641010761,20230328142057080,None,38,61,96,35,23,27,129,188
462,0,6.651026249,20230328142057090,None,38,61,96,35,23,27,129,188
463,0,6.6609725950000005,20230328142057100,None,39,52,94,37,27,26,115,197
464,0,6.671055555,20230328142057110,None,43,55,113,49,29,26,110,211
465,0,6.681226015,20230328142057120,None,43,55,113,49,29,26,110,211
466,0,6.690976619,20230328142057130,None,44,59,113,57,29,26,117,285
467,0,6.701246738,20230328142057140,None,44,59,113,57,29,26,117,285
468,0,6.710950613,20230328142057150,None,44,59,113,57,29,26,117,285
469,0,6.720927238,20230328142057160,None,45,62,108,68,31,26,143,247
470,0,6.730912924,20230328142057170,None,46,63,102,67,34,27,150,247
471,0,6.74092102,20230328142057180,None,46,63,102,67,34,27,150,247
472,0,6.750898838,20230328142057190,None,59,65,104,67,31,31,198,242
473,0,6.760912418,20230328142057200,None,59,65,104,67,31,31,198,242
474,0,6.770904064,20230328142057210,None,59,65,104,67,31,31,198,242
475,0,6.780902385,20230328142057220,None,74,67,99,69,37,35,266,328
476,0,6.790899276,20230328142057230,None,73,63,121,81,38,37,287,289
477,0,6.800904274,20230328142057240,None,73,63,121,81,38,37,287,289
478,0,6.810951233,20230328142057250,None,72,62,122,79,39,39,325,283
479,0,6.820891857,20230328142057260,None,72,62,122,79,39,39,325,283
480,0,6.830971718,20230328142057270,None,72,62,122,79,39,39,325,283
481,0,6.841058492,20230328142057280,None,72,73,147,83,36,37,383,353
482,0,6.851415395,20230328142057290,None,79,78,159,86,38,37,373,371
483,0,6.8610682480000005,20230328142057300,None,79,78,159,86,38,37,373,371
484,0,6.871039152,20230328142057310,None,79,78,159,86,38,37,373,371
485,0,6.88126111,20230328142057320,None,82,81,154,85,33,37,374,306
486,0,6.891025305,20230328142057330,None,82,81,154,85,33,37,374,306
487,0,6.90146017,20230328142057340,None,83,85,148,76,32,37,432,334
488,0,6.911260605,20230328142057350,None,92,83,172,80,30,36,400,368
489,1,6.920883894,20230328142057360,None,92,83,172,80,30,36,400,368
490,1,6.930926561,20230328142057370,None,95,73,166,78,31,39,356,323
491,1,6.94134283,20230328142057380,None,95,73,166,78,31,39,356,323
492,1,6.951022625,20230328142057390,None,95,73,166,78,31,39,356,323
493,1,6.961043119,20230328142057400,None,87,68,160,83,35,46,416,314
494,1,6.970961332,20230328142057410,None,91,70,170,80,35,48,469,366
495,1,6.9809553619999996,20230328142057420,None,91,70,170,80,35,48,469,366
496,1,6.990922212,20230328142057430,None,99,67,181,91,35,50,442,351
497,1,7.000982046,20230328142057440,None,99,67,181,91,35,50,442,351
498,1,7.010991573,20230328142057450,None,99,67,181,91,35,50,442,351
499,1,7.02101779,20230328142057460,None,102,79,167,88,35,53,487,339
500,1,7.030945301,20230328142057470,None,104,81,169,96,36,50,479,345
501,1,7.041194677,20230328142057480,None,104,81,169,96,36,50,479,345
502,1,7.051027775,20230328142057490,None,112,83,184,101,37,51,440,371
503,1,7.061448097,20230328142057500,None,112,83,184,101,37,51,440,371
504,1,7.070994138,20230328142057510,None,112,83,184,101,37,51,440,371
505,1,7.080902099,20230328142057520,None,106,79,228,104,39,55,417,321
506,1,7.090978622,20230328142057530,None,106,79,228,104,39,55,417,321
507,1,7.100967407,20230328142057540,None,107,91,251,105,43,59,461,314
508,1,7.111219883,20230328142057550,None,103,83,260,106,47,58,438,332
509,1,7.120948553,20230328142057560,None,103,83,260,106,47,58,438,332
510,1,7.131009102,20230328142057570,None,103,83,260,106,47,58,438,332
511,1,7.141008854,20230328142057580,None,99,84,271,101,47,58,448,346
512,1,7.150996208,20230328142057590,None,99,84,271,101,47,58,448,346
513,1,7.160923242,20230328142057600,None,92,85,265,106,45,54,465,327
514,1,7.170947313,20230328142057610,None,89,81,233,106,43,48,434,352
515,1,7.180974483,20230328142057620,None,89,81,233,106,43,48,434,352
516,1,7.190964699,20230328142057630,None,89,81,233,106,43,48,434,352
517,1,7.201075554,20230328142057640,None,89,81,233,106,43,48,434,352
518,1,7.210989713,20230328142057650,None,98,80,197,95,42,42,376,358
519,1,7.220895529,20230328142057660,None,97,98,238,99,40,50,379,334
520,1,7.230852365,20230328142057670,None,102,105,219,104,40,55,390,367
521,1,7.240843296,20230328142057680,None,102,105,219,104,40,55,390,367
522,1,7.250854254,20230328142057690,None,102,105,219,104,40,55,390,367
523,1,7.260941028,20230328142057700,None,100,108,221,101,38,55,394,374
524,1,7.270954609,20230328142057710,None,100,108,221,101,38,55,394,374
525,1,7.2809889309999996,20230328142057720,None,101,110,236,97,41,58,405,368
526,1,7.291039943,20230328142057730,None,84,117,275,118,40,65,448,371
527,1,7.300977707,20230328142057740,None,84,117,275,118,40,65,448,371
528,1,7.311052322,20230328142057750,None,84,117,275,118,40,65,448,371
529,1,7.321033239,20230328142057760,None,92,101,234,118,39,59,470,383
530,1,7.3309760090000005,20230328142057770,None,92,101,234,118,39,59,470,383
531,1,7.340977192,20230328142057780,None,90,94,267,124,38,60,506,386
532,1,7.350961923,20230328142057790,None,91,106,280,121,37,59,478,383
533,1,7.360964298,20230328142057800,None,91,106,280,121,37,59,478,383
534,1,7.370985031,20230328142057810,None,91,106,280,121,37,59,478,383
535,1,7.38102436,20230328142057820,None,88,108,328,127,38,54,454,407
536,1,7.391062021,20230328142057830,None,88,108,328,127,38,54,454,407
537,1,7.401039123,20230328142057840,None,84,104,315,115,38,45,435,388
538,1,7.411226034,20230328142057850,None,82,111,333,116,38,49,440,372
539,1,7.420998573,20230328142057860,None,82,111,333,116,38,49,440,372
540,1,7.431061029,20230328142057870,None,82,111,333,116,38,49,440,372
541,1,7.440970897,20230328142057880,None,91,109,324,110,41,43,430,386
542,1,7.451116562,20230328142057890,None,91,109,324,110,41,43,430,386
543,1,7.461037397,20230328142057900,None,100,103,345,154,57,47,485,376
544,1,7.470994711,20230328142057910,None,100,99,332,161,55,47,480,347
545,1,7.480975151,20230328142057920,None,100,99,332,161,55,47,480,347
546,1,7.490955829,20230328142057930,None,100,99,332,161,55,47,480,347
547,1,7.501019478,20230328142057940,None,105,88,336,162,56,47,451,386
548,1,7.511009216,20230328142057950,None,105,88,336,162,56,47,451,386
549,1,7.520993471,20230328142057960,None,111,87,326,164,55,45,404,396
550,1,7.5312709810000005,20230328142057970,None,107,95,315,167,53,47,363,318
551,1,7.541000604,20230328142057980,None,107,95,315,167,53,47,363,318
552,1,7.550920009,20230328142057990,None,107,95,315,167,53,47,363,318
553,1,7.561075926,20230328142058000,None,94,88,296,132,36,42,340,332
554,1,7.571003437,20230328142058010,None,94,88,296,132,36,42,340,332
555,1,7.581094503,20230328142058020,None,96,97,239,118,35,54,397,333
556,1,7.5909759999999995,20230328142058030,None,95,125,248,120,37,58,391,316
557,1,7.600951195,20230328142058040,None,95,125,248,120,37,58,391,316
558,1,7.610987186,20230328142058050,None,95,125,248,120,37,58,391,316
559,1,7.621023178,20230328142058060,None,87,121,253,122,38,57,426,303
560,1,7.6310322280000005,20230328142058070,None,87,121,253,122,38,57,426,303
561,1,7.6409904950000005,20230328142058080,None,97,126,276,142,45,55,420,364
562,1,7.650998115,20230328142058090,None,103,123,313,176,47,56,378,357
563,1,7.661328315,20230328142058100,None,103,123,313,176,47,56,378,357
564,1,7.670992136,20230328142058110,None,103,123,313,176,47,56,378,357
565,1,7.681026458,20230328142058120,None,102,121,321,191,48,46,373,356
566,1,7.691004753,20230328142058130,None,102,121,321,191,48,46,373,356
567,1,7.700977802,20230328142058140,None,108,94,325,188,47,41,383,346
568,1,7.711011171,20230328142058150,None,107,98,389,185,46,42,350,341
569,1,7.721413374,20230328142058160,None,107,98,389,185,46,42,350,341
570,1,7.731023788,20230328142058170,None,107,98,389,185,46,42,350,341
571,1,7.740968942,20230328142058180,None,102,88,417,190,45,40,354,275
572,1,7.750993728,20230328142058190,None,102,88,417,190,45,40,354,275
573,1,7.7610814569999995,20230328142058200,None,102,88,417,190,45,40,354,275
574,1,7.770952701,20230328142058210,None,126,98,392,136,50,45,401,327
575,1,7.781224012,20230328142058220,None,126,98,392,136,50,45,401,327
576,1,7.791021108,20230328142058230,None,126,98,392,136,50,45,401,327
577,1,7.801001072,20230328142058240,None,121,100,388,143,48,48,381,319
578,1,7.811460256,20230328142058250,None,121,100,388,143,48,48,381,319
579,1,7.821012974,20230328142058260,None,115,99,320,165,49,48,460,323
580,1,7.831036091,20230328142058270,None,115,99,320,165,49,48,460,323
581,1,7.841011524,20230328142058280,None,105,93,315,144,47,49,479,354
582,1,7.85102582,20230328142058290,None,105,93,315,144,47,49,479,354
583,1,7.86101532,20230328142058300,None,108,91,336,142,44,48,457,327
584,1,7.871008396,20230328142058310,None,108,91,336,142,44,48,457,327
585,1,7.881035089,20230328142058320,None,91,78,371,164,44,51,398,312
586,1,7.891094446,20230328142058330,None,89,73,369,170,47,52,512,311
587,1,7.900953293,20230328142058340,None,89,73,369,170,47,52,512,311
588,1,7.91100955,20230328142058350,None,89,73,369,170,47,52,512,311
589,1,7.921133041,20230328142058360,None,91,71,381,158,48,51,459,337
590,1,7.931033611,20230328142058370,None,91,71,381,158,48,51,459,337
591,1,7.940980673,20230328142058380,None,90,70,345,176,52,57,458,304
592,1,7.950959205,20230328142058390,None,100,63,323,184,54,62,492,288
593,1,7.960983038,20230328142058400,None,100,63,323,184,54,62,492,288
594,1,7.971020698,20230328142058410,None,100,63,323,184,54,62,492,288
595,1,7.981005192,20230328142058420,None,102,63,278,169,51,57,511,305
596,1,7.991064787,20230328142058430,None,102,63,278,169,51,57,511,305
597,1,8.00109601,20230328142058440,None,118,59,296,156,47,55,433,308
598,1,8.010947466,20230328142058450,None,118,59,296,156,47,55,433,308
599,1,8.020951032,20230328142058460,None,124,58,294,150,48,60,461,279
600,1,8.030906915,20230328142058470,None,124,58,294,150,48,60,461,279
601,1,8.040921688,20230328142058480,None,144,60,323,130,44,57,429,306
602,1,8.050910473,20230328142058490,None,144,60,323,130,44,57,429,306
603,1,8.060906887,20230328142058500,None,134,60,315,119,43,53,421,324
604,1,8.070919752,20230328142058510,None,134,60,315,119,43,53,421,324
605,1,8.080891609,20230328142058520,None,129,61,326,115,41,52,424,296
606,1,8.090886354,20230328142058530,None,129,61,326,115,41,52,424,296
607,1,8.100955963,20230328142058540,None,118,60,297,117,46,62,449,322
608,1,8.110934496,20230328142058550,None,118,60,297,117,46,62,449,322
609,1,8.120912075,20230328142058560,None,122,60,328,117,44,58,402,314
610,1,8.130903482,20230328142058570,None,122,60,328,117,44,58,402,314
611,1,8.140892744,20230328142058580,None,99,54,290,128,47,55,420,300
612,1,8.150878191,20230328142058590,None,99,54,290,128,47,55,420,300
613,1,8.160887956,20230328142058600,None,107,60,304,146,49,60,406,318
614,1,8.170918226,20230328142058610,None,107,60,304,146,49,60,406,318
615,1,8.181035995,20230328142058620,None,105,58,407,165,51,69,450,330
616,1,8.191064596,20230328142058630,None,105,58,407,165,51,69,450,330
617,1,8.201320886,20230328142058640,None,105,58,407,165,51,69,450,330
618,1,8.211072206,20230328142058650,None,107,54,465,174,49,60,415,317
619,1,8.221039057,20230328142058660,None,111,54,458,176,49,61,458,349
620,1,8.231053352,20230328142058670,None,111,54,458,176,49,61,458,349
621,1,8.240995884,20230328142058680,None,111,54,458,176,49,61,458,349
622,1,8.251270056,20230328142058690,None,128,56,479,166,45,62,467,362
623,1,8.260979891,20230328142058700,None,118,56,486,156,44,60,456,340
624,1,8.271007061,20230328142058710,None,118,56,486,156,44,60,456,340
625,1,8.281021356,20230328142058720,None,121,61,414,134,44,49,511,307
626,1,8.291301965,20230328142058730,None,121,61,414,134,44,49,511,307
627,1,8.301010132,20230328142058740,None,128,69,366,126,46,51,501,326
628,1,8.3110044,20230328142058750,None,128,69,366,126,46,51,501,326
629,1,8.321002245,20230328142058760,None,120,71,334,118,47,50,491,298
630,1,8.330994606,20230328142058770,None,120,71,334,118,47,50,491,298
631,1,8.341278314,20230328142058780,None,109,69,316,117,47,53,522,285
632,1,8.351024866,20230328142058790,None,109,69,316,117,47,53,522,285
633,1,8.361014366,20230328142058800,None,109,64,347,114,45,54,559,274
634,1,8.3711977,20230328142058810,None,109,64,347,114,45,54,559,274
635,1,8.380969047,20230328142058820,None,106,59,357,137,48,54,473,316
636,1,8.391056061,20230328142058830,None,106,59,357,137,48,54,473,316
637,1,8.401022434,20230328142058840,None,96,53,408,130,44,52,471,287
638,1,8.4109869,20230328142058850,None,96,53,408,130,44,52,471,287
639,1,8.421008348,20230328142058860,None,99,46,401,137,42,56,484,288
640,1,8.430987119,20230328142058870,None,99,46,401,137,42,56,484,288
641,1,8.441065311,20230328142058880,None,99,46,401,137,42,56,484,288
642,1,8.451024532,20230328142058890,None,117,48,396,130,42,55,462,335
643,1,8.461020231,20230328142058900,None,131,49,346,149,47,58,501,353
644,1,8.470930338,20230328142058910,None,131,49,346,149,47,58,501,353
645,1,8.481552839,20230328142058920,None,137,50,357,133,46,58,482,321
646,1,8.491216182,20230328142058930,None,137,50,357,133,46,58,482,321
647,1,8.501335620999999,20230328142058940,None,135,48,273,134,49,58,484,332
648,1,8.510992526999999,20230328142058950,None,135,48,273,134,49,58,484,332
649,1,8.520973682,20230328142058960,None,138,48,339,136,48,59,441,353
650,1,8.530915022,20230328142058970,None,138,48,339,136,48,59,441,353
651,1,8.540994882,20230328142058980,None,136,43,330,146,50,61,450,382
652,1,8.551002502,20230328142058990,None,136,43,330,146,50,61,450,382
653,1,8.561078071,20230328142059000,None,123,44,340,127,47,55,393,385
654,1,8.571002006,20230328142059010,None,123,44,340,127,47,55,393,385
655,1,8.581338405,20230328142059020,None,120,39,292,127,43,54,401,396
656,1,8.590989113,20230328142059030,None,120,39,292,127,43,54,401,396
657,1,8.601633548,20230328142059041,None,128,45,322,131,45,54,403,385
658,1,8.611004114,20230328142059050,None,128,45,322,131,45,54,403,385
659,1,8.620978832,20230328142059060,None,128,47,279,127,48,47,423,370
660,1,8.630993604,20230328142059070,None,128,47,279,127,48,47,423,370
661,1,8.641213655,20230328142059080,None,107,55,305,122,45,42,394,323
662,1,8.651517629,20230328142059090,None,107,55,305,122,45,42,394,323
663,1,8.661085129,20230328142059100,None,107,55,305,122,45,42,394,323
664,1,8.671360254,20230328142059110,None,107,61,315,126,49,43,412,303
665,1,8.681009054,20230328142059120,None,111,70,379,181,55,41,406,310
666,1,8.690993547,20230328142059130,None,111,70,379,181,55,41,406,310
667,1,8.701408624,20230328142059140,None,103,71,375,189,51,41,433,299
668,1,8.711037159,20230328142059150,None,103,71,375,189,51,41,433,299
669,1,8.721176862,20230328142059160,None,92,71,376,204,53,45,401,329
670,1,8.730970859,20230328142059170,None,92,71,376,204,53,45,401,329
671,1,8.740966558,20230328142059180,None,94,68,363,217,60,43,380,274
672,1,8.750997066,20230328142059190,None,94,68,363,217,60,43,380,274
673,1,8.761007786,20230328142059200,None,86,62,345,217,58,45,361,267
674,1,8.771034956,20230328142059210,None,86,62,345,217,58,45,361,267
675,1,8.780967951000001,20230328142059220,None,77,57,306,168,53,44,386,259
676,1,8.790991782999999,20230328142059230,None,77,57,306,168,53,44,386,259
677,1,8.800977707,20230328142059240,None,73,55,293,172,51,44,362,279
678,1,8.81098938,20230328142059250,None,73,55,293,172,51,44,362,279
679,1,8.821004629,20230328142059260,None,72,55,286,161,47,40,410,248
680,1,8.830995798,20230328142059270,None,72,55,286,161,47,40,410,248
681,1,8.840991974,20230328142059280,None,70,52,315,141,39,40,420,257
682,1,8.851009845,20230328142059290,None,70,52,315,141,39,40,420,257
683,1,8.861023426,20230328142059300,None,73,52,395,156,40,40,417,256
684,1,8.870997905,20230328142059310,None,73,52,395,156,40,40,417,256
685,1,8.880903721,20230328142059320,None,73,53,367,159,40,40,438,281
686,1,8.890995741,20230328142059330,None,73,53,367,159,40,40,438,281
687,1,8.900995016,20230328142059340,None,73,53,367,159,40,40,438,281
688,1,8.9110291,20230328142059350,None,72,57,351,137,41,44,490,252
689,1,8.921014786,20230328142059360,None,67,56,365,136,40,42,482,237
690,1,8.930977106,20230328142059370,None,67,56,365,136,40,42,482,237
691,1,8.941015482,20230328142059380,None,67,58,340,144,40,41,499,227
692,1,8.950994014,20230328142059390,None,67,58,340,144,40,41,499,227
693,1,8.961003542,20230328142059400,None,64,58,267,142,39,40,466,225
694,1,8.971035242,20230328142059410,None,64,58,267,142,39,40,466,225
695,1,8.981004238,20230328142059420,None,57,56,275,143,39,41,446,236
696,1,8.990910053,20230328142059430,None,57,56,275,143,39,41,446,236
697,1,9.000963926,20230328142059440,None,58,50,289,159,40,38,394,235
698,1,9.010992527,20230328142059450,None,58,50,289,159,40,38,394,235
699,1,9.021006107,20230328142059460,None,64,48,275,147,42,39,371,234
700,1,9.031036138,20230328142059470,None,64,48,275,147,42,39,371,234
701,1,9.040979862,20230328142059480,None,72,51,258,132,42,41,336,231
702,1,9.05096507,20230328142059490,None,72,51,258,132,42,41,336,231
703,1,9.060978651,20230328142059500,None,70,53,240,103,40,43,358,232
704,1,9.071026087,20230328142059510,None,70,53,240,103,40,43,358,232
705,1,9.081051348999999,20230328142059520,None,70,53,240,103,40,43,358,232
706,1,9.090986728,20230328142059530,None,69,61,238,106,40,43,320,141
707,1,9.100965738,20230328142059540,None,68,62,249,87,45,43,379,212
708,1,9.111007929,20230328142059550,None,68,62,249,87,45,43,379,212
709,1,9.1210258,20230328142059560,None,61,61,215,88,43,46,414,247
710,1,9.131242752,20230328142059570,None,61,61,215,88,43,46,414,247
711,1,9.140988826,20230328142059580,None,51,61,218,90,42,44,421,248
712,1,9.150957584,20230328142059590,None,51,61,218,90,42,44,421,248
713,1,9.160989284,20230328142059600,None,53,64,241,108,41,41,392,249
714,1,9.170998096,20230328142059610,None,53,64,241,108,41,41,392,249
715,1,9.181299925,20230328142059620,None,56,57,225,104,40,46,436,288
716,1,9.191028118,20230328142059630,None,56,57,225,104,40,46,436,288
717,1,9.200983524,20230328142059640,None,56,56,198,99,37,46,472,320
718,1,9.211013078,20230328142059650,None,56,56,198,99,37,46,472,320
719,1,9.22097063,20230328142059660,None,73,58,258,103,36,48,470,288
720,1,9.231009483,20230328142059670,None,73,58,258,103,36,48,470,288
721,1,9.241103649,20230328142059680,None,71,60,268,115,35,49,481,284
722,1,9.251220941,20230328142059690,None,71,60,268,115,35,49,481,284
723,1,9.260983228,20230328142059700,None,96,54,252,111,39,55,549,365
724,1,9.271014213,20230328142059710,None,96,54,252,111,39,55,549,365
725,1,9.281016111,20230328142059720,None,98,57,264,119,38,51,567,358
726,1,9.291025638,20230328142059730,None,98,57,264,119,38,51,567,358
727,1,9.300992489,20230328142059740,None,99,55,290,132,37,51,481,305
728,1,9.310996055,20230328142059750,None,99,55,290,132,37,51,481,305
729,1,9.321002722,20230328142059760,None,86,60,260,129,38,46,450,310
730,1,9.330991506,20230328142059770,None,86,60,260,129,38,46,450,310
731,1,9.341009617,20230328142059780,None,89,58,273,147,41,45,436,370
732,1,9.350960016,20230328142059790,None,89,58,273,147,41,45,436,370
733,1,9.360980749,20230328142059800,None,63,60,295,149,38,36,409,299
734,1,9.371011734,20230328142059810,None,63,60,295,149,38,36,409,299
735,1,9.381021023,20230328142059820,None,60,57,339,147,38,36,387,282
736,1,9.391048193,20230328142059830,None,60,57,339,147,38,36,387,282
737,1,9.401004314,20230328142059840,None,56,66,326,143,39,34,380,264
738,1,9.410994768,20230328142059850,None,56,66,326,143,39,34,380,264
739,1,9.420987844,20230328142059860,None,59,64,317,151,36,32,367,251
740,1,9.431423425,20230328142059870,None,59,64,317,151,36,32,367,251
741,1,9.441008806,20230328142059880,None,56,67,310,135,35,33,372,155
742,1,9.450977325,20230328142059890,None,56,67,310,135,35,33,372,155
743,1,9.460956812,20230328142059900,None,62,67,292,128,33,32,357,222
744,1,9.470942735,20230328142059910,None,62,67,292,128,33,32,357,222
745,1,9.481308222,20230328142059920,None,62,67,292,128,33,32,357,222
746,1,9.491081238,20230328142059930,None,60,65,256,124,35,32,367,228
747,1,9.501005411,20230328142059940,None,60,65,256,124,35,32,367,228
748,1,9.511010885,20230328142059950,None,63,58,266,130,34,34,408,251
749,1,9.521019459,20230328142059960,None,69,58,267,125,37,39,413,256
750,1,9.531015396,20230328142059970,None,69,58,267,125,37,39,413,256
751,1,9.541028499,20230328142059980,None,69,49,263,124,37,37,417,261
752,1,9.550999879999999,20230328142059990,None,69,49,263,124,37,37,417,261
753,1,9.560969829,20230328142100000,None,62,49,253,121,42,42,390,198
754,1,9.570918798,20230328142100010,None,62,49,253,121,42,42,390,198
755,1,9.581026315,20230328142100020,None,60,49,238,122,42,41,397,170
756,1,9.59101057,20230328142100030,None,60,49,238,122,42,41,397,170
757,1,9.600912332,20230328142100040,None,65,49,208,110,42,43,419,204
758,1,9.610968351,20230328142100050,None,65,49,208,110,42,43,419,204
759,1,9.621061563,20230328142100060,None,61,45,213,103,44,42,427,218
760,1,9.631447077,20230328142100070,None,61,45,213,103,44,42,427,218
761,1,9.641016721,20230328142100080,None,61,47,196,100,42,44,415,239
762,1,9.650999784,20230328142100090,None,61,47,196,100,42,44,415,239
763,1,9.660972595,20230328142100100,None,65,50,196,98,39,41,410,236
764,1,9.670993566,20230328142100110,None,65,50,196,98,39,41,410,236
765,1,9.681062937,20230328142100120,None,65,50,206,99,39,43,466,240
766,1,9.691470384,20230328142100130,None,65,50,206,99,39,43,466,240
767,1,9.700970173,20230328142100140,None,65,56,234,109,40,44,488,279
768,1,9.710973739,20230328142100150,None,65,56,234,109,40,44,488,279
769,1,9.720952749,20230328142100160,None,65,59,229,111,42,44,485,281
770,1,9.730909347,20230328142100170,None,65,59,229,111,42,44,485,281
771,1,9.740945101,20230328142100180,None,69,65,257,125,44,48,549,293
772,1,9.750948906,20230328142100190,None,69,65,257,125,44,48,549,293
773,1,9.760961532,20230328142100200,None,62,66,252,132,47,48,572,288
774,1,9.770902157,20230328142100210,None,62,66,252,132,47,48,572,288
775,1,9.780943632,20230328142100220,None,61,74,241,129,47,47,519,321
776,1,9.790948629,20230328142100230,None,61,74,241,129,47,47,519,321
777,1,9.800943374,20230328142100240,None,56,78,218,133,51,54,489,242
778,1,9.81094265,20230328142100250,None,56,78,218,133,51,54,489,242
779,1,9.820952177,20230328142100260,None,57,79,222,134,47,52,525,258
780,1,9.83089447,20230328142100270,None,57,79,222,134,47,52,525,258
781,1,9.840950966,20230328142100280,None,90,77,267,119,48,48,518,301
782,1,9.850955248,20230328142100290,None,90,77,267,119,48,48,518,301
783,1,9.860959768,20230328142100300,None,93,80,269,116,45,53,537,346
784,1,9.870903969,20230328142100310,None,93,80,269,116,45,53,537,346
785,1,9.880899667,20230328142100320,None,93,80,269,116,45,53,537,346
786,1,9.890923261,20230328142100330,None,103,80,298,123,50,57,523,331
787,1,9.900900364,20230328142100340,None,106,70,313,133,44,48,540,336
788,1,9.910842895,20230328142100350,None,106,70,313,133,44,48,540,336
789,1,9.920854568,20230328142100360,None,105,68,301,130,45,49,543,366
790,1,9.930884838,20230328142100370,None,105,68,301,130,45,49,543,366
791,1,9.940954447,20230328142100380,None,100,70,251,132,40,51,536,321
792,1,9.950951814,20230328142100390,None,100,70,251,132,40,51,536,321
793,1,9.961014986,20230328142100400,None,131,68,284,138,43,47,492,296
794,1,9.970969915,20230328142100410,None,131,68,284,138,43,47,492,296
795,1,9.980971575,20230328142100420,None,131,68,284,138,43,47,492,296
796,1,9.990969181,20230328142100430,None,131,58,329,144,41,43,556,325
797,1,10.000960111,20230328142100440,None,135,60,346,121,44,44,520,341
798,1,10.010950565,20230328142100450,None,135,60,346,121,44,44,520,341
799,1,10.020954609,20230328142100460,None,135,64,369,126,48,45,492,308
800,1,10.030955791,20230328142100470,None,135,64,369,126,48,45,492,308
801,1,10.04096055,20230328142100480,None,123,58,399,137,52,49,569,301
802,1,10.050960541,20230328142100490,None,123,58,399,137,52,49,569,301
803,1,10.06096363,20230328142100500,None,104,52,374,133,52,52,613,312
804,1,10.070943832,20230328142100510,None,104,52,374,133,52,52,613,312
805,1,10.080922365,20230328142100520,None,108,54,315,140,51,57,568,315
806,1,10.090937853,20230328142100530,None,108,54,315,140,51,57,568,315
807,1,10.100966215,20230328142100540,None,105,52,303,148,48,58,559,311
808,1,10.110970974,20230328142100550,None,105,52,303,148,48,58,559,311
809,1,10.120915651,20230328142100560,None,106,54,341,158,48,60,590,305
810,1,10.130936622,20230328142100570,None,106,54,341,158,48,60,590,305
811,1,10.140944242,20230328142100580,None,130,55,311,154,45,55,529,304
812,1,10.150957823,20230328142100590,None,130,55,311,154,45,55,529,304
813,1,10.160963058,20230328142100600,None,130,55,311,154,45,55,529,304
814,1,10.170955658,20230328142100610,None,129,63,336,151,47,50,480,349
815,1,10.180921554,20230328142100620,None,130,66,323,144,45,41,457,327
816,1,10.190937996,20230328142100630,None,130,66,323,144,45,41,457,327
817,1,10.200947761,20230328142100640,None,133,73,361,140,46,37,540,328
818,1,10.210945606,20230328142100650,None,133,73,361,140,46,37,540,328
819,1,10.220950603,20230328142100660,None,135,73,349,130,43,40,525,317
820,1,10.230913639,20230328142100670,None,135,73,349,130,43,40,525,317
821,1,10.240891218,20230328142100680,None,119,78,362,120,43,45,484,328
822,1,10.250937938,20230328142100690,None,119,78,362,120,43,45,484,328
823,1,10.260918379,20230328142100700,None,126,73,369,130,50,53,513,370
824,1,10.270911932,20230328142100710,None,126,73,369,130,50,53,513,370
825,1,10.280900955,20230328142100720,None,113,70,381,124,55,62,599,365
826,1,10.290945291,20230328142100730,None,113,70,381,124,55,62,599,365
827,1,10.300963639999999,20230328142100740,None,106,75,360,134,53,65,560,353
828,1,10.310973644,20230328142100750,None,106,75,360,134,53,65,560,353
829,1,10.320953607,20230328142100760,None,105,72,347,142,54,61,594,404
830,1,10.330948591,20230328142100770,None,105,72,347,142,54,61,594,404
831,1,10.340947866,20230328142100780,None,109,67,335,141,55,59,620,395
832,1,10.350915909,20230328142100790,None,109,67,335,141,55,59,620,395
833,1,10.360907792999999,20230328142100800,None,92,66,294,138,47,54,643,304
834,1,10.370954752,20230328142100810,None,92,66,294,138,47,54,643,304
835,1,10.380948066,20230328142100820,None,102,70,334,152,41,46,627,337
836,1,10.390893221,20230328142100830,None,102,70,334,152,41,46,627,337
837,1,10.400897979,20230328142100840,None,102,70,334,152,41,46,627,337
838,1,10.410889148,20230328142100850,None,115,60,329,144,42,42,608,411
839,1,10.420896768,20230328142100860,None,117,60,304,131,39,45,609,376
840,1,10.430874586,20230328142100870,None,117,60,304,131,39,45,609,376
841,1,10.44092083,20230328142100880,None,118,60,308,142,41,44,570,376
842,1,10.450907469,20230328142100890,None,118,60,308,142,41,44,570,376
843,1,10.460903883,20230328142100900,None,118,60,351,147,40,43,510,368
844,1,10.47088623,20230328142100910,None,118,60,351,147,40,43,510,368
845,1,10.480915546,20230328142100920,None,119,58,299,131,43,42,429,351
846,1,10.490904808,20230328142100930,None,119,58,299,131,43,42,429,351
847,1,10.501413583,20230328142100940,None,110,62,269,133,48,43,457,291
848,1,10.510999441,20230328142100950,None,110,62,269,133,48,43,457,291
849,1,10.520999193,20230328142100960,None,110,62,269,133,48,43,457,291
850,1,10.530990599999999,20230328142100970,None,108,73,297,138,50,43,386,271
851,1,10.540962457,20230328142100980,None,89,72,306,132,49,44,388,265
852,1,10.550891399,20230328142100990,None,89,72,306,132,49,44,388,265
853,1,10.560969352,20230328142101000,None,85,74,330,126,51,47,409,267
854,1,10.571010828,20230328142101010,None,85,74,330,126,51,47,409,267
855,1,10.580930471,20230328142101020,None,85,74,330,126,51,47,409,267
856,1,10.590895653,20230328142101030,None,96,73,344,129,48,47,457,291
857,1,10.600884199,20230328142101040,None,96,73,344,129,48,47,457,291
858,1,10.610884428,20230328142101050,None,95,69,368,126,48,48,449,284
859,1,10.620886326,20230328142101060,None,99,56,360,127,53,52,459,286
860,1,10.630886793,20230328142101070,None,99,56,360,127,53,52,459,286
861,1,10.640880584,20230328142101080,None,102,53,403,125,50,51,478,289
862,1,10.650887012,20230328142101090,None,102,53,403,125,50,51,478,289
863,1,10.660908222,20230328142101100,None,105,55,368,119,48,49,524,279
864,1,10.670967102,20230328142101110,None,105,55,368,119,48,49,524,279
865,1,10.680979967,20230328142101120,None,99,55,414,113,52,49,477,342
866,1,10.690890074,20230328142101130,None,99,55,414,113,52,49,477,342
867,1,10.700884104,20230328142101140,None,99,55,414,113,52,49,477,342
868,1,10.710890293,20230328142101150,None,99,54,453,127,49,45,456,322
869,1,10.720944643,20230328142101160,None,104,57,465,154,46,43,485,325
870,1,10.730892658,20230328142101170,None,104,57,465,154,46,43,485,325
871,1,10.740900755,20230328142101180,None,109,61,442,152,46,40,481,334
872,1,10.750885486,20230328142101190,None,109,61,442,152,46,40,481,334
873,1,10.76088047,20230328142101200,None,109,61,442,152,46,40,481,334
874,1,10.770893097,20230328142101210,None,116,61,436,148,53,43,418,369
875,1,10.780884504,20230328142101220,None,107,67,396,151,51,43,400,272
876,1,10.790887117,20230328142101230,None,107,67,396,151,51,43,400,272
877,1,10.800889253,20230328142101240,None,118,70,336,142,53,46,424,297
878,1,10.810883999,20230328142101250,None,118,70,336,142,53,46,424,297
879,1,10.820874452,20230328142101260,None,118,70,336,142,53,46,424,297
880,1,10.830911398,20230328142101270,None,108,68,375,120,56,48,391,299
881,1,10.84091115,20230328142101280,None,107,66,367,141,60,51,392,345
882,1,10.850910663,20230328142101290,None,107,66,367,141,60,51,392,345
883,1,10.86089921,20230328142101300,None,104,66,438,154,55,48,394,341
884,1,10.871613025,20230328142101311,None,104,66,438,154,55,48,394,341
885,1,10.88102293,20230328142101320,None,104,66,438,154,55,48,394,341
886,1,10.890929937,20230328142101330,None,111,65,487,169,54,48,446,326
887,1,10.900990009000001,20230328142101340,None,111,65,487,169,54,48,446,326
888,1,10.91101408,20230328142101350,None,111,65,487,169,54,48,446,326
889,1,10.921257972,20230328142101360,None,113,72,510,170,47,39,482,343
890,1,10.930995702,20230328142101370,None,113,72,510,170,47,39,482,343
891,1,10.941514253,20230328142101380,None,110,74,521,168,45,40,513,304
892,1,10.950937032,20230328142101390,None,110,74,521,168,45,40,513,304
893,1,10.960949659,20230328142101400,None,110,74,521,168,45,40,513,304
894,1,10.970985173999999,20230328142101410,None,110,74,521,168,45,40,513,304
895,1,10.980998754,20230328142101420,None,116,66,444,161,44,43,483,273
896,1,10.991014003,20230328142101430,None,116,66,444,161,44,43,483,273
897,1,11.000976085,20230328142101440,None,116,66,444,161,44,43,483,273
898,1,11.011482,20230328142101450,None,112,61,406,162,42,45,497,321
899,1,11.021135092,20230328142101460,None,112,61,406,162,42,45,497,321
900,1,11.031002044,20230328142101470,None,112,61,406,162,42,45,497,321
901,1,11.041164875,20230328142101480,None,119,54,390,170,45,47,497,347
902,1,11.050959348,20230328142101490,None,119,54,390,170,45,47,497,347
903,1,11.06098628,20230328142101500,None,119,54,390,170,45,47,497,347
904,1,11.071336746,20230328142101510,None,124,62,408,159,48,48,492,368
905,1,11.081246376,20230328142101520,None,124,62,408,159,48,48,492,368
906,1,11.090911388,20230328142101530,None,115,61,369,163,48,50,535,379
907,1,11.100926637,20230328142101540,None,128,60,376,169,48,48,437,363
908,1,11.111000776,20230328142101550,None,128,60,376,169,48,48,437,363
909,1,11.121421337,20230328142101560,None,128,60,376,169,48,48,437,363
910,1,11.130952358,20230328142101570,None,130,56,393,159,51,54,519,295
911,1,11.14103055,20230328142101580,None,130,56,393,159,51,54,519,295
912,0,11.151068449,20230328142101590,None,130,56,393,159,51,54,519,295
913,0,11.160950184,20230328142101600,None,138,48,376,184,57,49,525,331
914,0,11.170993566,20230328142101610,None,138,48,376,184,57,49,525,331
915,0,11.181022644,20230328142101620,None,138,48,376,184,57,49,525,331
916,0,11.191250086,20230328142101630,None,135,53,399,176,60,49,503,347
917,0,11.201020002,20230328142101640,None,135,53,399,176,60,49,503,347
918,0,11.210956096,20230328142101650,None,135,53,399,176,60,49,503,347
919,0,11.220962763,20230328142101660,None,116,53,420,151,59,49,482,323
920,0,11.231016636,20230328142101670,None,116,53,420,151,59,49,482,323
921,0,11.241010189,20230328142101680,None,116,53,420,151,59,49,482,323
922,0,11.251024723,20230328142101690,None,109,60,441,161,56,53,520,315
923,0,11.261287689,20230328142101700,None,109,60,441,161,56,53,520,315
924,0,11.270987034000001,20230328142101710,None,109,60,441,161,56,53,520,315
925,0,11.281155824,20230328142101720,None,94,71,363,137,45,50,501,293
926,0,11.291040182,20230328142101730,None,94,71,363,137,45,50,501,293
927,0,11.301017046,20230328142101740,None,94,71,363,137,45,50,501,293
928,0,11.31099534,20230328142101750,None,94,76,305,134,39,42,433,266
929,0,11.320996761,20230328142101760,None,94,76,305,134,39,42,433,266
930,0,11.330992937,20230328142101770,None,94,76,305,134,39,42,433,266
931,0,11.341039896,20230328142101780,None,83,71,319,138,37,41,461,299
932,0,11.35102582,20230328142101790,None,83,71,319,138,37,41,461,299
933,0,11.361002207,20230328142101800,None,83,71,319,138,37,41,461,299
934,0,11.371048212,20230328142101810,None,89,66,323,137,43,42,529,308
935,0,11.381213665,20230328142101820,None,89,66,323,137,43,42,529,308
936,0,11.391035795,20230328142101830,None,90,56,312,132,43,44,545,288
937,0,11.400966644,20230328142101840,None,91,54,296,129,44,46,538,288
938,0,11.410948038,20230328142101850,None,91,54,296,129,44,46,538,288
939,0,11.42098403,20230328142101860,None,91,54,296,129,44,46,538,288
940,0,11.431060791,20230328142101870,None,96,52,239,117,43,43,519,244
941,0,11.441212415,20230328142101880,None,96,52,239,117,43,43,519,244
942,0,11.450973749,20230328142101890,None,88,59,229,136,51,43,522,230
943,0,11.460950374,20230328142101900,None,81,59,222,142,44,41,431,127
944,0,11.470990181,20230328142101910,None,81,59,222,142,44,41,431,127
945,0,11.481003523,20230328142101920,None,81,59,222,142,44,41,431,127
946,0,11.491287708,20230328142101930,None,74,58,228,144,45,38,386,204
947,0,11.501386165,20230328142101940,None,74,58,228,144,45,38,386,204
948,0,11.51099801,20230328142101950,None,68,57,209,147,44,38,440,208
949,0,11.521203994,20230328142101960,None,62,55,215,138,44,40,421,214
950,0,11.531036138,20230328142101970,None,62,55,215,138,44,40,421,214
951,0,11.540999412,20230328142101980,None,62,55,215,138,44,40,421,214
952,0,11.551009893,20230328142101990,None,63,48,203,123,36,39,400,217
953,0,11.560974359,20230328142102000,None,63,48,203,123,36,39,400,217
954,0,11.571181059,20230328142102010,None,73,46,200,114,39,36,416,219
955,0,11.580985546,20230328142102020,None,77,49,191,121,45,37,441,148
956,0,11.591019869,20230328142102030,None,77,49,191,121,45,37,441,148
957,0,11.601000786,20230328142102040,None,77,49,191,121,45,37,441,148
958,0,11.611024856,20230328142102050,None,77,49,191,121,45,37,441,148
959,0,11.620994329,20230328142102060,None,74,50,177,114,44,36,399,150
960,0,11.630953312,20230328142102070,None,71,57,188,111,44,35,413,136
961,0,11.64101839,20230328142102080,None,66,63,214,101,44,36,400,259
962,0,11.651045084,20230328142102090,None,66,63,214,101,44,36,400,259
963,0,11.661270857,20230328142102100,None,66,63,214,101,44,36,400,259
964,0,11.670968532,20230328142102110,None,54,71,215,95,40,38,394,258
965,0,11.6809659,20230328142102120,None,54,71,215,95,40,38,394,258
966,0,11.69088006,20230328142102130,None,50,73,208,71,29,36,361,253
967,0,11.70106411,20230328142102140,None,54,71,232,72,31,38,354,250
968,0,11.711045265,20230328142102150,None,54,71,232,72,31,38,354,250
969,0,11.72089982,20230328142102160,None,53,68,239,78,30,37,319,258
970,0,11.730990886,20230328142102170,None,53,68,239,78,30,37,319,258
971,0,11.741004944,20230328142102180,None,53,68,239,78,30,37,319,258
972,0,11.75095272,20230328142102190,None,55,67,197,80,31,36,334,137
973,0,11.760929346,20230328142102200,None,55,59,198,90,35,35,314,133
974,0,11.77104783,20230328142102210,None,55,59,198,90,35,35,314,133
975,0,11.781313419,20230328142102220,None,55,59,198,90,35,35,314,133
976,0,11.791036367,20230328142102230,None,48,57,193,88,37,39,335,121
977,0,11.801006078,20230328142102240,None,48,57,193,88,37,39,335,121
978,0,11.811006307,20230328142102250,None,50,62,194,83,37,37,382,108
979,0,11.821456432,20230328142102260,None,50,62,194,83,37,37,382,108
980,0,11.831011772,20230328142102270,None,48,62,171,80,37,38,368,191
981,0,11.840988636,20230328142102280,None,48,62,171,80,37,38,368,191
982,0,11.851035833,20230328142102290,None,50,63,188,82,35,37,343,186
983,0,11.861484527,20230328142102300,None,50,63,188,82,35,37,343,186
984,0,11.871035099,20230328142102310,None,50,63,188,82,35,37,343,186
985,0,11.881212234,20230328142102320,None,56,62,206,73,32,39,349,203
986,0,11.890985965,20230328142102330,None,51,59,203,73,33,36,323,209
987,0,11.901702881,20230328142102341,None,51,59,203,73,33,36,323,209
988,0,11.911214828,20230328142102350,None,50,53,181,88,31,38,292,209
989,0,11.921058416,20230328142102360,None,50,53,181,88,31,38,292,209
990,0,11.931027889,20230328142102370,None,50,53,181,88,31,38,292,209
991,0,11.94120121,20230328142102380,None,61,47,183,88,31,38,358,199
992,0,11.951004505,20230328142102390,None,64,45,173,82,33,41,432,244
993,0,11.961014747,20230328142102400,None,64,45,173,82,33,41,432,244
994,0,11.970956564,20230328142102410,None,60,61,146,80,32,39,439,234
995,0,11.981065273,20230328142102420,None,60,61,146,80,32,39,439,234
996,0,11.991198063,20230328142102430,None,60,69,142,79,32,43,471,239
997,0,12.000949144,20230328142102440,None,60,69,142,79,32,43,471,239
998,0,12.010969162,20230328142102450,None,66,71,129,63,34,41,434,236
999,0,12.021012068,20230328142102460,None,66,71,129,63,34,41,434,236
1000,0,12.030994415,20230328142102470,None,57,79,121,56,34,43,442,199
1001,0,12.04106307,20230328142102480,None,57,79,121,56,34,43,442,199
1002,0,12.051011324,20230328142102490,None,62,81,107,50,31,41,405,200
1003,0,12.061216831,20230328142102500,None,62,81,107,50,31,41,405,200
1004,0,12.070970773,20230328142102510,None,63,75,76,49,29,41,400,207
1005,0,12.081035614,20230328142102520,None,63,75,76,49,29,41,400,207
1006,0,12.090976238,20230328142102530,None,66,71,81,48,33,37,380,214
1007,0,12.101214885,20230328142102540,None,66,71,81,48,33,37,380,214
1008,0,12.111003637,20230328142102550,None,66,71,81,48,33,37,380,214
1009,0,12.120969534,20230328142102560,None,62,72,82,44,31,38,506,217
1010,0,12.131022691,20230328142102570,None,60,65,117,51,33,39,512,210
1011,0,12.141033172,20230328142102580,None,60,65,117,51,33,39,512,210
1012,0,12.151107788,20230328142102590,None,47,62,124,49,33,37,488,169
1013,0,12.161236763,20230328142102600,None,47,62,124,49,33,37,488,169
1014,0,12.171039581,20230328142102610,None,50,58,125,47,35,40,493,163
1015,0,12.181027889,20230328142102620,None,50,58,125,47,35,40,493,163
1016,0,12.190948248,20230328142102630,None,47,56,124,50,31,43,492,138
1017,0,12.201111316,20230328142102640,None,47,56,124,50,31,43,492,138
1018,0,12.210997581,20230328142102650,None,57,54,127,53,32,43,404,190
1019,0,12.221036911,20230328142102660,None,57,54,127,53,32,43,404,190
1020,0,12.230998754,20230328142102670,None,57,54,127,53,32,43,404,190
1021,0,12.24096632,20230328142102680,None,57,59,96,48,34,42,369,193
1022,0,12.250959158,20230328142102690,None,75,69,91,49,35,45,416,186
1023,0,12.2610147,20230328142102700,None,75,69,91,49,35,45,416,186
1024,0,12.27100563,20230328142102710,None,71,70,94,51,36,43,423,182
1025,0,12.281204462,20230328142102720,None,71,70,94,51,36,43,423,182
1026,0,12.290963411,20230328142102730,None,70,68,93,50,35,38,414,188
1027,0,12.30127573,20230328142102740,None,70,68,93,50,35,38,414,188
1028,0,12.311088085,20230328142102750,None,59,73,94,52,36,40,381,144
1029,0,12.321017503,20230328142102760,None,59,73,94,52,36,40,381,144
1030,0,12.331028223,20230328142102770,None,65,73,102,51,33,35,368,123
1031,0,12.340965271,20230328142102780,None,65,73,102,51,33,35,368,123
1032,0,12.350860357,20230328142102790,None,44,61,111,51,32,35,327,137
1033,0,12.360892057,20230328142102800,None,44,61,111,51,32,35,327,137
1034,0,12.371019363,20230328142102810,None,46,67,121,54,31,33,365,132
1035,0,12.380933045999999,20230328142102820,None,46,67,121,54,31,33,365,132
1036,0,12.390955209,20230328142102830,None,45,70,118,52,31,35,356,123
1037,0,12.401037454,20230328142102840,None,45,70,118,52,31,35,356,123
1038,0,12.4110744,20230328142102850,None,45,69,120,46,32,37,392,180
1039,0,12.421112537,20230328142102860,None,45,69,120,46,32,37,392,180
1040,0,12.431105137,20230328142102870,None,47,74,113,45,35,38,366,195
1041,0,12.440985917999999,20230328142102880,None,47,74,113,45,35,38,366,195
1042,0,12.451003074,20230328142102890,None,49,80,131,46,35,38,346,189
1043,0,12.461211204,20230328142102900,None,49,80,131,46,35,38,346,189
1044,0,12.471007824,20230328142102910,None,49,80,131,46,35,38,346,189
1045,0,12.481221437,20230328142102920,None,55,78,157,62,38,40,275,190
1046,0,12.491240263,20230328142102930,None,53,79,172,73,40,44,304,199
1047,0,12.500974416,20230328142102940,None,53,79,172,73,40,44,304,199
1048,0,12.51129198,20230328142102950,None,61,88,169,75,38,44,316,161
1049,0,12.521071672,20230328142102960,None,61,88,169,75,38,44,316,161
1050,0,12.531049728,20230328142102970,None,61,88,169,75,38,44,316,161
1051,0,12.540991782999999,20230328142102980,None,54,85,180,76,34,45,367,146
1052,0,12.550959348,20230328142102990,None,53,79,182,78,36,46,374,138
1053,0,12.561016798,20230328142103000,None,53,79,182,78,36,46,374,138
1054,0,12.570984363,20230328142103010,None,46,82,154,64,33,44,377,137
1055,0,12.581235409,20230328142103020,None,46,82,154,64,33,44,377,137
1056,0,12.591033935,20230328142103030,None,46,82,154,64,33,44,377,137
1057,0,12.601266384,20230328142103040,None,49,83,137,52,33,43,439,187
1058,0,12.61130476,20230328142103050,None,40,73,156,61,36,40,398,169
1059,0,12.62100029,20230328142103060,None,40,73,156,61,36,40,398,169
1060,0,12.631293535,20230328142103070,None,42,70,150,60,36,38,399,215
1061,0,12.640990734,20230328142103080,None,42,70,150,60,36,38,399,215
1062,0,12.651027441,20230328142103090,None,42,70,150,60,36,38,399,215
1063,0,12.661231756,20230328142103100,None,43,70,141,57,36,38,401,214
1064,0,12.671301126,20230328142103110,None,43,61,142,54,37,36,426,222
1065,0,12.681079387,20230328142103120,None,43,61,142,54,37,36,426,222
1066,0,12.691013336,20230328142103130,None,52,56,140,54,38,46,437,181
1067,0,12.701002836,20230328142103140,None,52,56,140,54,38,46,437,181
1068,0,12.711004734,20230328142103150,None,52,56,140,54,38,46,437,181
1069,0,12.721199751,20230328142103160,None,51,49,127,44,37,48,442,188
1070,0,12.731017351,20230328142103170,None,51,54,125,51,38,49,423,177
1071,0,12.740993499,20230328142103180,None,51,54,125,51,38,49,423,177
1072,0,12.750982761,20230328142103190,None,49,66,102,52,36,46,419,207
1073,0,12.761362076,20230328142103200,None,49,66,102,52,36,46,419,207
1074,0,12.771096945,20230328142103210,None,58,74,99,52,36,50,423,207
1075,0,12.780972719,20230328142103220,None,58,74,99,52,36,50,423,207
1076,0,12.791075468,20230328142103230,None,53,90,100,51,33,40,355,210
1077,0,12.801040888,20230328142103240,None,53,90,100,51,33,40,355,210
1078,0,12.811019420000001,20230328142103250,None,54,98,94,53,32,42,366,221
1079,0,12.821029663000001,20230328142103260,None,54,98,94,53,32,42,366,221
1080,0,12.831075668,20230328142103270,None,63,100,79,44,32,41,339,189
1081,0,12.841086387,20230328142103280,None,63,100,79,44,32,41,339,189
1082,0,12.851037979,20230328142103290,None,61,92,77,42,33,41,334,162
1083,0,12.861341953,20230328142103300,None,61,92,77,42,33,41,334,162
1084,0,12.870893478,20230328142103310,None,53,90,80,44,33,39,397,158
1085,0,12.881021738,20230328142103320,None,53,90,80,44,33,39,397,158
1086,0,12.891079426,20230328142103330,None,53,90,80,44,33,39,397,158
1087,0,12.901254654,20230328142103340,None,50,76,79,45,33,40,378,153
1088,0,12.910978794,20230328142103350,None,52,66,72,43,33,35,356,193
1089,0,12.920967579,20230328142103360,None,52,66,72,43,33,35,356,193
1090,0,12.931480646,20230328142103370,None,40,62,74,43,32,38,379,242
1091,0,12.941056013,20230328142103380,None,40,62,74,43,32,38,379,242
1092,0,12.950975895,20230328142103390,None,40,62,74,43,32,38,379,242
1093,0,12.960973263,20230328142103400,None,40,69,71,42,33,39,387,249
1094,0,12.971005678000001,20230328142103410,None,43,70,82,40,33,38,283,258
1095,0,12.980944872,20230328142103420,None,43,70,82,40,33,38,283,258
1096,0,12.991008043,20230328142103430,None,54,71,83,38,37,41,287,260
1097,0,13.000987291,20230328142103440,None,54,71,83,38,37,41,287,260
1098,0,13.010880232,20230328142103450,None,50,76,76,38,35,43,294,215
1099,0,13.020919561,20230328142103460,None,50,76,76,38,35,43,294,215
1100,0,13.030941725,20230328142103470,None,51,77,75,37,36,43,269,186
1101,0,13.040986299,20230328142103480,None,51,77,75,37,36,43,269,186
1102,0,13.050999641,20230328142103490,None,57,70,77,40,36,41,262,170
1103,0,13.060977936,20230328142103500,None,57,70,77,40,36,41,262,170
1104,0,13.071028948,20230328142103510,None,57,70,77,40,36,41,262,170
1105,0,13.080992698,20230328142103520,None,55,79,56,40,38,40,315,222
1106,0,13.090986013,20230328142103530,None,48,84,57,40,34,39,369,219
1107,0,13.100991249,20230328142103540,None,48,84,57,40,34,39,369,219
1108,0,13.111020565,20230328142103550,None,48,82,60,37,35,36,378,229
1109,0,13.120991707,20230328142103560,None,48,82,60,37,35,36,378,229
1110,0,13.130941629,20230328142103570,None,48,82,60,37,35,36,378,229
1111,0,13.141209841,20230328142103580,None,50,83,73,37,35,36,425,233
1112,0,13.151096821,20230328142103590,None,44,88,68,34,33,37,427,239
1113,0,13.161227941,20230328142103600,None,44,88,68,34,33,37,427,239
1114,0,13.17097187,20230328142103610,None,57,87,75,31,31,35,429,180
1115,0,13.181194305,20230328142103620,None,57,87,75,31,31,35,429,180
1116,0,13.190943479,20230328142103630,None,57,87,75,31,31,35,429,180
1117,0,13.20130682,20230328142103640,None,55,87,75,32,30,33,420,181
1118,0,13.211030006,20230328142103650,None,62,92,71,37,29,33,407,170
1119,0,13.221244096,20230328142103660,None,62,92,71,37,29,33,407,170
1120,0,13.231190443,20230328142103670,None,58,91,68,37,30,31,395,211
1121,0,13.241224766,20230328142103680,None,58,91,68,37,30,31,395,211
1122,0,13.250970602,20230328142103690,None,58,94,76,36,28,34,395,203
1123,0,13.260991573,20230328142103700,None,58,94,76,36,28,34,395,203
1124,0,13.270984649,20230328142103710,None,44,85,79,37,29,39,352,215
1125,0,13.281016588,20230328142103720,None,44,85,79,37,29,39,352,215
1126,0,13.290986776,20230328142103730,None,56,80,81,40,29,41,360,219
1127,0,13.300991773,20230328142103740,None,56,80,81,40,29,41,360,219
1128,0,13.310969352,20230328142103750,None,48,74,94,38,30,43,378,217
1129,0,13.320944786,20230328142103760,None,48,74,94,38,30,43,378,217
1130,0,13.330969333,20230328142103770,None,47,73,90,37,27,45,386,134
1131,0,13.340991258,20230328142103780,None,47,73,90,37,27,45,386,134
1132,0,13.351021051,20230328142103790,None,48,72,82,37,28,42,387,139
1133,0,13.360998869,20230328142103800,None,48,72,82,37,28,42,387,139
1134,0,13.370981216,20230328142103810,None,48,72,82,37,28,42,387,139
1135,0,13.380897999,20230328142103820,None,48,70,73,35,30,40,403,123
1136,0,13.391034603,20230328142103830,None,33,67,80,32,35,35,337,107
1137,0,13.401213884,20230328142103840,None,33,67,80,32,35,35,337,107
1138,0,13.41100955,20230328142103850,None,35,64,82,32,35,33,355,107
1139,0,13.421097755,20230328142103860,None,35,64,82,32,35,33,355,107
1140,0,13.430893421,20230328142103870,None,39,64,90,34,34,29,322,116
1141,0,13.44120264,20230328142103880,None,39,64,90,34,34,29,322,116
1142,0,13.451234579,20230328142103890,None,47,56,93,36,36,31,330,144
1143,0,13.461226701,20230328142103900,None,47,56,93,36,36,31,330,144
1144,0,13.471074581,20230328142103910,None,47,60,93,37,33,33,321,148
1145,0,13.481000662,20230328142103920,None,47,60,93,37,33,33,321,148
1146,0,13.491026878,20230328142103930,None,47,60,93,37,33,33,321,148
1147,0,13.501232147,20230328142103940,None,50,57,92,39,29,33,338,151
1148,0,13.511029482,20230328142103950,None,49,64,93,39,29,36,345,159
1149,0,13.521318197,20230328142103960,None,49,64,93,39,29,36,345,159
1150,0,13.530985832,20230328142103970,None,55,78,82,36,31,39,351,161
1151,0,13.540957927000001,20230328142103980,None,55,78,82,36,31,39,351,161
1152,0,13.55101037,20230328142103990,None,55,78,82,36,31,39,351,161
1153,0,13.561019182,20230328142104000,None,48,83,92,33,29,40,345,133
1154,0,13.570995807,20230328142104010,None,54,87,97,32,28,36,348,130
1155,0,13.581066847,20230328142104020,None,54,87,97,32,28,36,348,130
1156,0,13.590989828,20230328142104030,None,53,91,88,31,28,35,369,130
1157,0,13.601350069,20230328142104040,None,53,91,88,31,28,35,369,130
1158,0,13.61101079,20230328142104050,None,53,91,88,31,28,35,369,130
1159,0,13.621587276,20230328142104060,None,59,95,73,32,27,35,319,173
1160,0,13.630997181,20230328142104070,None,53,86,74,36,29,37,392,204
1161,0,13.64095068,20230328142104080,None,53,86,74,36,29,37,392,204
1162,0,13.650992155,20230328142104090,None,53,82,63,37,29,40,448,218
1163,0,13.661219358,20230328142104100,None,53,82,63,37,29,40,448,218
1164,0,13.670994997,20230328142104110,None,53,82,63,37,29,40,448,218
1165,0,13.680951595,20230328142104120,None,56,81,55,39,33,41,460,225
1166,0,13.690948248,20230328142104130,None,56,81,56,41,31,42,465,230
1167,0,13.700951338,20230328142104140,None,56,81,56,41,31,42,465,230
1168,0,13.711084604,20230328142104150,None,51,80,66,38,30,39,496,195
1169,0,13.721281051,20230328142104160,None,51,80,66,38,30,39,496,195
1170,0,13.731012344,20230328142104170,None,51,80,66,38,30,39,496,195
1171,0,13.740968704,20230328142104180,None,49,79,67,38,29,36,433,164
1172,0,13.751178503,20230328142104190,None,57,83,61,38,31,34,390,153
1173,0,13.761337518,20230328142104200,None,57,83,61,38,31,34,390,153
1174,0,13.770997762,20230328142104210,None,49,84,61,35,29,36,383,132
1175,0,13.78093338,20230328142104220,None,49,84,61,35,29,36,383,132
1176,0,13.790965795,20230328142104230,None,49,84,61,35,29,36,383,132
1177,0,13.801028251,20230328142104240,None,49,81,62,33,29,42,366,135
1178,0,13.811074257,20230328142104250,None,49,81,62,33,29,42,366,135
1179,0,13.821316004,20230328142104260,None,47,77,54,33,31,45,337,137
1180,0,13.83104515,20230328142104270,None,56,73,53,32,32,43,373,128
1181,0,13.841129541,20230328142104280,None,56,73,53,32,32,43,373,128
1182,0,13.851053238,20230328142104290,None,56,73,53,32,32,43,373,128
1183,0,13.861034393,20230328142104300,None,46,68,58,31,30,41,359,138
1184,0,13.871066808,20230328142104310,None,45,63,59,33,31,39,361,158
1185,0,13.881720781,20230328142104321,None,45,63,59,33,31,39,361,158
1186,0,13.890994072,20230328142104330,None,49,61,71,33,32,34,359,145
1187,0,13.901317835,20230328142104340,None,49,61,71,33,32,34,359,145
1188,0,13.91102004,20230328142104350,None,49,61,71,33,32,34,359,145
1189,0,13.921017408,20230328142104360,None,54,67,87,30,32,36,390,143
1190,0,13.930971622,20230328142104370,None,45,84,90,28,32,39,386,138
1191,0,13.941352844,20230328142104380,None,45,84,90,28,32,39,386,138
1192,0,13.951009273,20230328142104390,None,45,88,93,30,31,41,418,124
1193,0,13.961142778,20230328142104400,None,45,88,93,30,31,41,418,124
1194,0,13.971034288,20230328142104410,None,45,88,93,30,31,41,418,124
1195,0,13.981002569,20230328142104420,None,46,90,93,31,29,42,408,108
1196,0,13.990966558,20230328142104430,None,50,95,91,36,29,39,409,109
1197,0,14.001232862,20230328142104440,None,50,95,91,36,29,39,409,109
1198,0,14.011009216,20230328142104450,None,45,88,83,36,28,33,356,103
1199,0,14.021231174,20230328142104460,None,45,88,83,36,28,33,356,103
1200,0,14.030955553,20230328142104470,None,45,88,83,36,28,33,356,103
1201,0,14.040990114,20230328142104480,None,46,72,82,38,27,37,336,113
1202,0,14.050949812,20230328142104490,None,45,77,79,39,33,42,395,100
1203,0,14.061050176,20230328142104500,None,45,77,79,39,33,42,395,100
1204,0,14.071011066,20230328142104510,None,45,74,79,38,34,40,403,90
1205,0,14.081250667,20230328142104520,None,45,74,79,38,34,40,403,90
1206,0,14.09090209,20230328142104530,None,45,74,79,38,34,40,403,90
1207,0,14.100932121,20230328142104540,None,48,76,74,36,33,42,407,144
1208,0,14.111039161,20230328142104550,None,47,79,63,38,34,43,403,152
1209,0,14.121237993,20230328142104560,None,47,79,63,38,34,43,403,152
1210,0,14.131163358,20230328142104570,None,46,80,69,43,34,37,382,149
1211,0,14.141246319,20230328142104580,None,46,80,69,43,34,37,382,149
1212,0,14.150924444,20230328142104590,None,46,80,69,43,34,37,382,149
1213,0,14.160985946,20230328142104600,None,47,69,84,43,31,32,296,151
1214,0,14.170980692,20230328142104610,None,46,67,82,42,30,32,270,155
1215,0,14.181459665,20230328142104620,None,46,67,82,42,30,32,270,155
1216,0,14.190999269,20230328142104630,None,48,61,81,42,32,34,276,124
1217,0,14.201007128,20230328142104640,None,48,61,81,42,32,34,276,124
1218,0,14.211014509,20230328142104650,None,48,61,81,42,32,34,276,124
1219,0,14.221057415,20230328142104660,None,48,61,81,42,32,34,276,124
1220,0,14.231218576,20230328142104670,None,48,63,74,35,33,32,268,106
1221,0,14.24146986,20230328142104680,None,48,63,74,35,33,32,268,106
1222,0,14.251019716,20230328142104690,None,47,64,63,34,33,30,226,100
1223,0,14.261218548,20230328142104700,None,47,64,63,34,33,30,226,100
1224,0,14.270990133,20230328142104710,None,47,64,63,34,33,30,226,100
1225,0,14.281037569,20230328142104720,None,47,72,69,40,33,29,215,88
1226,0,14.291232109,20230328142104730,None,36,76,79,39,30,28,130,63
1227,0,14.300963639999999,20230328142104740,None,36,76,79,39,30,28,130,63
1228,0,14.310991049,20230328142104750,None,40,79,86,39,33,30,129,65
1229,0,14.321208477,20230328142104760,None,40,79,86,39,33,30,129,65
1230,0,14.330989361,20230328142104770,None,40,79,86,39,33,30,129,65
1231,0,14.341310024,20230328142104780,None,42,83,84,41,33,32,116,104
1232,0,14.350945472,20230328142104790,None,43,84,87,43,32,34,236,106
1233,0,14.361230135,20230328142104800,None,43,84,87,43,32,34,236,106
1234,0,14.371008873,20230328142104810,None,43,85,90,38,31,35,239,109
1235,0,14.381452083,20230328142104820,None,43,85,90,38,31,35,239,109
1236,0,14.391028642,20230328142104830,None,43,85,90,38,31,35,239,109
1237,0,14.401257515,20230328142104840,None,45,80,84,38,34,32,245,112
1238,0,14.410974025,20230328142104850,None,43,73,81,36,28,33,265,112
1239,0,14.421625137,20230328142104861,None,43,73,81,36,28,33,265,112
1240,0,14.431042909,20230328142104870,None,41,70,81,37,29,31,277,83
1241,0,14.441293001,20230328142104880,None,41,70,81,37,29,31,277,83
1242,0,14.451038599,20230328142104890,None,41,70,81,37,29,31,277,83
1243,0,14.460944414,20230328142104900,None,40,68,73,36,30,29,194,79
1244,0,14.470995426,20230328142104910,None,42,64,67,40,31,28,189,107
1245,0,14.481012821,20230328142104920,None,42,64,67,40,31,28,189,107
1246,0,14.490958929,20230328142104930,None,45,64,74,47,31,29,175,101
1247,0,14.50124073,20230328142104940,None,45,64,74,47,31,29,175,101
1248,0,14.511037588,20230328142104950,None,45,64,74,47,31,29,175,101
1249,0,14.521015644,20230328142104960,None,43,66,78,52,31,28,248,115
1250,0,14.530971288,20230328142104970,None,46,63,79,53,29,30,271,113
1251,0,14.541204214,20230328142104980,None,46,63,79,53,29,30,271,113
1252,0,14.550953865,20230328142104990,None,47,65,82,54,32,29,268,119
1253,0,14.560985803,20230328142105000,None,47,65,82,54,32,29,268,119
1254,0,14.571044445,20230328142105010,None,47,65,82,54,32,29,268,119
1255,0,14.581696987,20230328142105021,None,46,66,85,53,34,31,275,91
1256,0,14.59098053,20230328142105030,None,46,63,75,48,33,30,274,91
1257,0,14.601222515,20230328142105040,None,46,63,75,48,33,30,274,91
1258,0,14.611001491,20230328142105050,None,48,60,67,45,37,28,204,98
1259,0,14.620966673,20230328142105060,None,48,60,67,45,37,28,204,98
1260,0,14.630981683,20230328142105070,None,48,60,67,45,37,28,204,98
1261,0,14.641261816,20230328142105080,None,46,64,67,48,37,28,168,108
1262,0,14.650992632,20230328142105090,None,46,64,67,48,37,28,168,108
1263,0,14.661188602,20230328142105100,None,48,70,65,47,34,28,262,118
1264,0,14.670883417,20230328142105110,None,48,70,70,45,30,28,258,122
1265,0,14.681030035,20230328142105120,None,48,70,70,45,30,28,258,122
1266,0,14.690912008,20230328142105130,None,48,70,70,45,30,28,258,122
1267,0,14.700947046,20230328142105140,None,40,80,72,45,33,29,266,122
1268,0,14.711037159,20230328142105150,None,40,80,72,45,33,29,266,122
1269,0,14.721006393,20230328142105160,None,49,91,80,46,31,32,300,104
1270,0,14.730991602,20230328142105170,None,48,98,88,44,33,32,311,94
1271,0,14.741008997,20230328142105180,None,48,98,88,44,33,32,311,94
1272,0,14.75090003,20230328142105190,None,48,98,88,44,33,32,311,94
1273,0,14.760966062,20230328142105200,None,46,92,90,42,33,31,240,86
1274,0,14.770983457,20230328142105210,None,46,92,90,42,33,31,240,86
1275,0,14.780918121,20230328142105220,None,46,93,89,44,34,30,237,83
1276,0,14.790916443,20230328142105230,None,43,89,86,46,32,28,226,80
1277,0,14.800959587,20230328142105240,None,43,89,86,46,32,28,226,80
1278,0,14.810949802,20230328142105250,None,43,89,86,46,32,28,226,80
1279,0,14.820947885,20230328142105260,None,34,77,95,54,33,26,152,74
1280,0,14.830965519,20230328142105270,None,34,77,95,54,33,26,152,74
1281,0,14.84094119,20230328142105280,None,40,72,90,53,31,25,144,83
1282,0,14.850944757,20230328142105290,None,40,78,101,54,30,26,155,75
1283,0,14.860965967,20230328142105300,None,40,78,101,54,30,26,155,75
1284,0,14.870975256,20230328142105310,None,40,78,101,54,30,26,155,75
1285,0,14.880928278,20230328142105320,None,39,76,101,57,29,25,177,72
1286,0,14.890907287,20230328142105330,None,39,76,101,57,29,25,177,72
1287,0,14.900908708,20230328142105340,None,40,74,106,57,29,26,184,73
1288,0,14.910962343,20230328142105350,None,38,78,93,51,33,26,187,76
1289,0,14.921048164,20230328142105360,None,38,78,93,51,33,26,187,76
1290,0,14.931038618,20230328142105370,None,38,78,93,51,33,26,187,76
1291,0,14.94152236,20230328142105380,None,31,75,109,51,36,26,181,65
1292,0,14.951014757,20230328142105390,None,31,75,109,51,36,26,181,65
1293,0,14.961007356,20230328142105400,None,41,69,107,50,37,25,167,64
1294,0,14.971043586,20230328142105410,None,43,74,101,46,39,28,166,70
1295,0,14.981029987,20230328142105420,None,43,74,101,46,39,28,166,70
1296,0,14.990998506,20230328142105430,None,43,74,101,46,39,28,166,70
1297,0,15.00099492,20230328142105440,None,43,73,116,45,39,30,165,80
1298,0,15.011245012,20230328142105450,None,43,73,116,45,39,30,165,80
1299,0,15.020969391,20230328142105460,None,44,71,112,40,39,31,241,80
1300,0,15.03097105,20230328142105470,None,44,75,108,40,35,33,231,89
1301,0,15.040963888,20230328142105480,None,44,75,108,40,35,33,231,89
1302,0,15.050964117,20230328142105490,None,44,75,108,40,35,33,231,89
1303,0,15.061411857,20230328142105500,None,34,81,103,44,38,33,233,84
1304,0,15.070943594,20230328142105510,None,34,81,103,44,38,33,233,84
1305,0,15.080959797,20230328142105520,None,40,77,105,47,37,34,233,136
1306,0,15.090972423,20230328142105530,None,40,81,91,45,36,35,235,136
1307,0,15.100965023,20230328142105540,None,40,81,91,45,36,35,235,136
1308,0,15.111002683,20230328142105550,None,40,81,91,45,36,35,235,136
1309,0,15.120937109,20230328142105560,None,41,82,98,45,32,34,158,140
1310,0,15.130932331,20230328142105570,None,41,82,98,45,32,34,158,140
1311,0,15.140967369,20230328142105580,None,39,79,90,47,34,30,153,134
1312,0,15.15097022,20230328142105590,None,40,71,90,43,30,31,141,137
1313,0,15.160947799,20230328142105600,None,40,71,90,43,30,31,141,137
1314,0,15.170945644,20230328142105610,None,40,71,90,43,30,31,141,137
1315,0,15.180956125,20230328142105620,None,32,69,92,42,33,29,115,85
1316,0,15.190965175,20230328142105630,None,32,69,92,42,33,29,115,85
1317,0,15.200948238,20230328142105640,None,31,61,84,44,32,27,103,72
1318,0,15.210947513,20230328142105650,None,30,62,81,45,34,27,119,67
1319,0,15.220944881,20230328142105660,None,30,62,81,45,34,27,119,67
1320,0,15.230955362,20230328142105670,None,30,62,81,45,34,27,119,67
1321,0,15.240956783,20230328142105680,None,29,65,76,45,33,26,120,65
1322,0,15.250945806,20230328142105690,None,29,65,76,45,33,26,120,65
1323,0,15.26096487,20230328142105700,None,36,75,75,55,35,28,140,90
1324,0,15.270940065,20230328142105710,None,37,83,71,52,35,28,250,88
1325,0,15.280968666,20230328142105720,None,37,83,71,52,35,28,250,88
1326,0,15.290947914,20230328142105730,None,37,83,71,52,35,28,250,88
1327,0,15.300944566,20230328142105740,None,39,85,77,51,36,27,254,88
1328,0,15.310945749,20230328142105750,None,39,85,77,51,36,27,254,88
1329,0,15.320973396,20230328142105760,None,40,86,97,51,35,28,251,88
1330,0,15.330955028,20230328142105770,None,41,88,96,50,36,29,293,106
1331,0,15.34095025,20230328142105780,None,41,88,96,50,36,29,293,106
1332,0,15.350940704,20230328142105790,None,41,88,96,50,36,29,293,106
1333,0,15.361140012,20230328142105800,None,35,77,97,45,35,26,298,95
1334,0,15.370968342,20230328142105810,None,35,77,97,45,35,26,298,95
1335,0,15.380948305,20230328142105820,None,44,68,101,47,33,25,223,99
1336,0,15.390941381,20230328142105830,None,41,69,99,47,31,25,220,99
1337,0,15.400967359,20230328142105840,None,41,69,99,47,31,25,220,99
1338,0,15.410943031,20230328142105850,None,41,69,99,47,31,25,220,99
1339,0,15.420942783,20230328142105860,None,41,75,82,46,30,23,215,99
1340,0,15.430944681,20230328142105870,None,41,75,82,46,30,23,215,99
1341,0,15.441008329,20230328142105880,None,43,84,82,47,29,29,287,81
1342,0,15.45091629,20230328142105890,None,40,88,81,40,28,30,306,74
1343,0,15.460945368,20230328142105900,None,40,88,81,40,28,30,306,74
1344,0,15.470946312,20230328142105910,None,40,88,81,40,28,30,306,74
1345,0,15.480947970999999,20230328142105920,None,34,95,76,41,31,32,310,79
1346,0,15.490946531,20230328142105930,None,34,95,76,41,31,32,310,79
1347,0,15.501085996,20230328142105940,None,34,95,76,41,31,32,310,79
1348,0,15.510951996,20230328142105950,None,48,89,71,49,33,32,332,101
1349,0,15.520946741,20230328142105960,None,48,89,71,49,33,32,332,101
1350,0,15.530962229,20230328142105970,None,48,89,71,49,33,32,332,101
1351,0,15.54096961,20230328142105980,None,49,75,66,48,32,30,224,102
1352,0,15.550946474,20230328142105990,None,49,75,66,48,32,30,224,102
1353,0,15.560948848,20230328142106000,None,51,70,65,50,34,30,216,103
1354,0,15.570948601,20230328142106010,None,49,63,73,49,33,30,292,99
1355,0,15.58095932,20230328142106020,None,49,63,73,49,33,30,292,99
1356,0,15.590918302,20230328142106030,None,49,63,73,49,33,30,292,99
1357,0,15.60091567,20230328142106040,None,37,64,83,47,33,31,295,98
1358,0,15.610894918,20230328142106050,None,37,64,83,47,33,31,295,98
1359,0,15.620944977,20230328142106060,None,45,67,97,44,31,29,276,78
1360,0,15.630946636000001,20230328142106070,None,45,67,97,44,31,29,276,78
1361,0,15.640999317,20230328142106080,None,43,68,106,41,31,29,293,82
1362,0,15.65097785,20230328142106090,None,43,68,106,41,31,29,293,82
1363,0,15.661025285000001,20230328142106100,None,42,70,115,41,27,29,314,88
1364,0,15.670997619,20230328142106110,None,42,70,115,41,27,29,314,88
1365,0,15.681165932999999,20230328142106120,None,42,65,118,50,28,30,235,115
1366,0,15.691036463,20230328142106130,None,42,65,118,50,28,30,235,115
1367,0,15.701028585,20230328142106140,None,43,62,112,55,28,30,311,113
1368,0,15.711010456,20230328142106150,None,43,62,112,55,28,30,311,113
1369,0,15.7209661,20230328142106160,None,32,65,117,55,29,31,317,117
1370,0,15.730989933,20230328142106170,None,32,65,117,55,29,31,317,117
1371,0,15.741061926,20230328142106180,None,38,71,122,58,31,31,328,112
1372,0,15.751015901,20230328142106190,None,38,71,122,58,31,31,328,112
1373,0,15.761147499,20230328142106200,None,40,71,153,62,33,30,305,111
1374,0,15.77105999,20230328142106210,None,40,71,153,62,33,30,305,111
1375,0,15.78099513,20230328142106220,None,40,83,153,58,35,30,302,78
1376,0,15.791241646,20230328142106230,None,40,83,153,58,35,30,302,78
1377,0,15.801010132,20230328142106240,None,40,90,156,54,34,30,221,80
1378,0,15.811254024,20230328142106250,None,40,90,156,54,34,30,221,80
1379,0,15.820987224,20230328142106260,None,41,91,148,52,33,32,219,79
1380,0,15.830869198,20230328142106270,None,36,97,154,52,31,30,182,78
1381,0,15.840900659,20230328142106280,None,36,97,154,52,31,30,182,78
1382,0,15.850913286,20230328142106290,None,36,97,154,52,31,30,182,78
1383,0,15.860993385,20230328142106300,None,33,99,124,46,31,30,252,70
1384,0,15.871473311999999,20230328142106310,None,33,99,124,46,31,30,252,70
1385,0,15.881007194,20230328142106320,None,40,93,123,45,30,30,267,102
1386,0,15.891009092000001,20230328142106330,None,40,93,123,45,30,30,267,102
1387,0,15.901227951,20230328142106340,None,42,92,117,43,33,31,272,104
1388,0,15.910967111,20230328142106350,None,42,92,117,43,33,31,272,104
1389,0,15.92137289,20230328142106360,None,46,89,119,41,34,30,283,108
1390,0,15.931238889,20230328142106370,None,46,89,119,41,34,30,283,108
1391,0,15.941402673,20230328142106380,None,46,78,102,40,34,30,283,106
1392,0,15.950991869,20230328142106390,None,46,78,102,40,34,30,283,106
1393,0,15.96098876,20230328142106400,None,47,75,97,47,36,33,215,106
1394,0,15.971613884,20230328142106411,None,47,75,97,47,36,33,215,106
1395,0,15.981119394,20230328142106420,None,47,75,97,47,36,33,215,106
1396,0,15.990975141,20230328142106430,None,39,78,96,50,36,34,275,87
1397,0,16.001030922,20230328142106440,None,46,79,107,51,34,32,287,88
1398,0,16.011063337,20230328142106450,None,46,79,107,51,34,32,287,88
1399,0,16.021012068,20230328142106460,None,45,78,122,55,37,31,281,82
1400,0,16.031215429,20230328142106470,None,45,78,122,55,37,31,281,82
1401,0,16.040990829,20230328142106480,None,45,77,122,57,37,33,282,103
1402,0,16.051316023,20230328142106490,None,45,77,122,57,37,33,282,103
1403,0,16.061029911,20230328142106500,None,47,79,116,54,35,33,284,116
1404,0,16.071208715,20230328142106510,None,51,82,117,49,34,34,229,116
1405,2,16.081028938,20230328142106520,None,51,82,117,49,34,34,229,116
1406,2,16.090943575,20230328142106530,None,51,82,117,49,34,34,229,116
1407,2,16.100941896,20230328142106540,None,50,91,111,48,38,37,305,119
1408,2,16.111054659,20230328142106550,None,50,91,111,48,38,37,305,119
1409,2,16.120968103,20230328142106560,None,49,90,89,46,35,39,319,127
1410,2,16.1308887,20230328142106570,None,49,91,100,44,35,39,319,113
1411,2,16.140954971,20230328142106580,None,49,91,100,44,35,39,319,113
1412,2,16.15147233,20230328142106590,None,49,91,100,44,35,39,319,113
1413,2,16.160991192,20230328142106600,None,47,93,101,46,33,35,304,102
1414,2,16.170960188,20230328142106610,None,47,93,101,46,33,35,304,102
1415,2,16.180881977,20230328142106620,None,45,93,111,47,35,37,342,128
1416,2,16.19094038,20230328142106630,None,45,93,111,47,35,37,342,128
1417,2,16.201015949,20230328142106640,None,47,83,108,53,33,35,264,122
1418,2,16.210983276,20230328142106650,None,47,83,108,53,33,35,264,122
1419,2,16.220906734,20230328142106660,None,45,96,119,52,32,35,245,116
1420,2,16.230998277,20230328142106670,None,45,96,119,52,32,35,245,116
1421,2,16.240979433,20230328142106680,None,49,101,113,53,32,34,252,117
1422,2,16.251069784,20230328142106690,None,49,101,113,53,32,34,252,117
1423,2,16.261090278,20230328142106700,None,50,99,131,49,34,35,254,115
1424,2,16.270955562,20230328142106710,None,50,99,131,49,34,35,254,115
1425,2,16.280940771,20230328142106720,None,49,95,121,51,36,33,182,82
1426,2,16.290989637,20230328142106730,None,49,95,121,51,36,33,182,82
1427,2,16.300994873,20230328142106740,None,38,99,134,49,34,33,270,93
1428,2,16.311006307,20230328142106750,None,38,99,134,49,34,33,270,93
1429,2,16.320893764,20230328142106760,None,41,88,140,53,35,31,265,90
1430,2,16.33096981,20230328142106770,None,41,88,140,53,35,31,265,90
1431,2,16.341013193,20230328142106780,None,40,81,143,55,41,32,257,85
1432,2,16.351031065,20230328142106790,None,40,81,143,55,41,32,257,85
1433,2,16.360975504,20230328142106800,None,42,82,135,53,41,31,273,83
1434,2,16.370974779,20230328142106810,None,42,82,135,53,41,31,273,83
1435,2,16.38094759,20230328142106820,None,49,78,155,54,40,29,274,90
1436,2,16.39103055,20230328142106830,None,49,78,155,54,40,29,274,90
1437,2,16.401042938,20230328142106840,None,51,72,161,57,42,31,286,80
1438,2,16.410994529,20230328142106850,None,51,72,161,57,42,31,286,80
1439,2,16.420964956,20230328142106860,None,50,64,144,52,41,32,291,80
1440,2,16.430982351,20230328142106870,None,50,64,144,52,41,32,291,80
1441,2,16.440977573,20230328142106880,None,47,69,147,60,37,33,293,94
1442,2,16.451043367,20230328142106890,None,47,69,147,60,37,33,293,94
1443,2,16.460980177,20230328142106900,None,44,66,142,59,38,33,282,120
1444,2,16.47100687,20230328142106910,None,44,66,142,59,38,33,282,120
1445,2,16.480958462,20230328142106920,None,41,70,134,64,37,34,288,118
1446,2,16.490983009,20230328142106930,None,41,70,134,64,37,34,288,118
1447,2,16.500971079,20230328142106940,None,38,77,127,78,34,34,258,119
1448,2,16.511036873,20230328142106950,None,38,77,127,78,34,34,258,119
1449,2,16.520972967,20230328142106960,None,38,83,130,81,38,32,263,122
1450,2,16.530988216,20230328142106970,None,38,83,130,81,38,32,263,122
1451,2,16.54101038,20230328142106980,None,50,79,138,87,44,37,290,122
1452,2,16.551026106,20230328142106990,None,50,79,138,87,44,37,290,122
1453,2,16.560967684,20230328142107000,None,50,79,138,87,44,37,290,122
1454,2,16.571022033,20230328142107010,None,64,85,138,93,45,39,317,116
1455,2,16.581056356,20230328142107020,None,64,94,126,94,44,40,386,110
1456,2,16.591023683,20230328142107030,None,64,94,126,94,44,40,386,110
1457,2,16.601010322,20230328142107040,None,66,89,139,81,46,38,376,113
1458,2,16.611001253,20230328142107050,None,66,89,139,81,46,38,376,113
1459,2,16.621089458,20230328142107060,None,76,89,149,93,45,40,378,132
1460,2,16.630962133,20230328142107070,None,76,89,149,93,45,40,378,132
1461,2,16.640988588,20230328142107080,None,71,87,151,85,42,52,394,134
1462,2,16.65103054,20230328142107090,None,71,87,151,85,42,52,394,134
1463,2,16.660994053,20230328142107100,None,63,84,161,79,40,54,446,123
1464,2,16.671003103,20230328142107110,None,63,84,161,79,40,54,446,123
1465,2,16.680972576,20230328142107120,None,63,72,161,79,43,56,441,206
1466,2,16.690951347,20230328142107130,None,63,72,161,79,43,56,441,206
1467,2,16.700993776,20230328142107140,None,65,64,144,84,42,58,436,210
1468,2,16.711034059,20230328142107150,None,65,64,144,84,42,58,436,210
1469,2,16.721013546000002,20230328142107160,None,58,60,142,73,38,58,434,203
1470,2,16.731014728,20230328142107170,None,58,60,142,73,38,58,434,203
1471,2,16.741031408,20230328142107180,None,57,62,121,77,39,44,433,203
1472,2,16.751019239,20230328142107190,None,57,62,121,77,39,44,433,203
1473,2,16.76105833,20230328142107200,None,70,55,125,86,42,49,428,201
1474,2,16.770992279,20230328142107210,None,70,55,125,86,42,49,428,201
1475,2,16.780971288,20230328142107220,None,70,52,146,86,43,48,514,132
1476,2,16.791008711,20230328142107230,None,70,52,146,86,43,48,514,132
1477,2,16.801127434,20230328142107240,None,71,52,144,85,44,51,539,125
1478,2,16.811030626,20230328142107250,None,71,52,144,85,44,51,539,125
1479,2,16.820976019,20230328142107260,None,68,48,162,83,46,53,561,116
1480,2,16.831008434,20230328142107270,None,68,48,162,83,46,53,561,116
1481,2,16.840970278,20230328142107280,None,72,54,167,78,43,53,588,116
1482,2,16.851050138,20230328142107290,None,72,54,167,78,43,53,588,116
1483,2,16.860957384,20230328142107300,None,68,72,154,72,43,47,571,127
1484,2,16.870997667,20230328142107310,None,68,72,154,72,43,47,571,127
1485,2,16.88099885,20230328142107320,None,64,74,146,71,38,45,469,112
1486,2,16.891005277,20230328142107330,None,64,74,146,71,38,45,469,112
1487,2,16.900975942,20230328142107340,None,77,75,152,67,42,42,447,114
1488,2,16.911055803,20230328142107350,None,77,75,152,67,42,42,447,114
1489,2,16.92100048,20230328142107360,None,92,81,130,72,45,44,455,111
1490,2,16.930989742,20230328142107370,None,92,81,130,72,45,44,455,111
1491,2,16.940972328,20230328142107380,None,93,80,123,83,49,44,495,133
1492,2,16.950989008,20230328142107390,None,93,80,123,83,49,44,495,133
1493,2,16.961036205,20230328142107400,None,93,80,123,83,49,44,495,133
1494,2,16.971023321,20230328142107410,None,93,68,158,88,46,51,484,183
1495,2,16.980983019,20230328142107420,None,97,70,147,88,48,52,494,221
1496,2,16.99101448,20230328142107430,None,97,70,147,88,48,52,494,221
1497,2,17.00102067,20230328142107440,None,94,69,137,102,43,51,499,221
1498,2,17.010987997,20230328142107450,None,94,69,137,102,43,51,499,221
1499,2,17.020986795,20230328142107460,None,79,67,133,105,40,49,502,232
1500,2,17.031059265,20230328142107470,None,79,67,133,105,40,49,502,232
1501,2,17.04114747,20230328142107480,None,77,65,150,108,36,50,497,231
1502,2,17.050951481,20230328142107490,None,77,65,150,108,36,50,497,231
1503,2,17.060953378,20230328142107500,None,86,70,136,111,39,48,552,247
1504,2,17.071364879,20230328142107510,None,86,70,136,111,39,48,552,247
1505,2,17.081009865,20230328142107520,None,87,67,143,123,42,51,573,220
1506,2,17.090976,20230328142107530,None,87,67,143,123,42,51,573,220
1507,2,17.101001978,20230328142107540,None,81,68,154,121,45,50,577,235
1508,2,17.111299038,20230328142107550,None,81,68,154,121,45,50,577,235
1509,2,17.121021986,20230328142107560,None,81,68,154,121,45,50,577,235
1510,2,17.13122797,20230328142107570,None,97,66,157,126,47,52,582,225
1511,2,17.141186952,20230328142107580,None,99,64,145,119,52,52,503,211
1512,2,17.151040792,20230328142107590,None,99,64,145,119,52,52,503,211
1513,2,17.161013603,20230328142107600,None,87,57,144,117,57,58,533,151
1514,2,17.170965194,20230328142107610,None,87,57,144,117,57,58,533,151
1515,2,17.181010961,20230328142107620,None,87,57,144,117,57,58,533,151
1516,2,17.191311598,20230328142107630,None,90,58,167,127,58,56,520,147
1517,2,17.201019048,20230328142107640,None,91,55,162,149,58,57,528,139
1518,2,17.21137762,20230328142107650,None,91,55,162,149,58,57,528,139
1519,2,17.221008777,20230328142107660,None,84,55,169,151,54,56,512,217
1520,2,17.231044292,20230328142107670,None,84,55,169,151,54,56,512,217
1521,2,17.241210937,20230328142107680,None,90,52,191,156,57,57,531,220
1522,2,17.250986337,20230328142107690,None,90,52,191,156,57,57,531,220
1523,2,17.260970592,20230328142107700,None,89,49,180,181,59,47,462,216
1524,2,17.270895719,20230328142107710,None,89,49,180,181,59,47,462,216
1525,2,17.280949354,20230328142107720,None,89,45,165,185,54,49,470,213
1526,2,17.290910959,20230328142107730,None,89,45,165,185,54,49,470,213
1527,2,17.300992012,20230328142107740,None,109,54,180,171,55,56,459,220
1528,2,17.31090641,20230328142107750,None,109,54,180,171,55,56,459,220
1529,2,17.320894003,20230328142107760,None,103,66,181,172,62,61,569,158
1530,2,17.33088088,20230328142107770,None,103,66,181,172,62,61,569,158
1531,2,17.341025829,20230328142107780,None,106,65,176,173,57,59,572,175
1532,2,17.350920915,20230328142107790,None,106,65,176,173,57,59,572,175
1533,2,17.360901832,20230328142107800,None,108,67,182,155,53,60,616,228
1534,2,17.370890856,20230328142107810,None,108,67,182,155,53,60,616,228
1535,2,17.380890608,20230328142107820,None,105,73,189,136,58,58,613,229
1536,2,17.390881538,20230328142107830,None,105,73,189,136,58,58,613,229
1537,2,17.400898695,20230328142107840,None,105,73,189,136,58,58,613,229
1538,2,17.410902738,20230328142107850,None,89,73,192,154,57,53,627,230
1539,2,17.42091012,20230328142107860,None,89,73,192,154,57,53,627,230
1540,2,17.430889129,20230328142107870,None,96,62,190,177,51,48,527,222
1541,2,17.440871954,20230328142107880,None,83,63,223,173,53,47,540,205
1542,2,17.450928211,20230328142107890,None,83,63,223,173,53,47,540,205
1543,2,17.460916757,20230328142107900,None,85,65,217,173,56,49,519,216
1544,2,17.47091031,20230328142107910,None,85,65,217,173,56,49,519,216
1545,2,17.480878353,20230328142107920,None,85,65,217,173,56,49,519,216
1546,2,17.490887403,20230328142107930,None,98,63,210,183,54,50,533,234
1547,2,17.500910282,20230328142107940,None,104,60,212,168,69,50,582,242
1548,2,17.510935783,20230328142107950,None,104,60,212,168,69,50,582,242
1549,2,17.520918846,20230328142107960,None,112,67,220,132,74,49,619,251
1550,2,17.530965566,20230328142107970,None,112,67,220,132,74,49,619,251
1551,2,17.540988683,20230328142107980,None,112,67,220,132,74,49,619,251
1552,2,17.551038742,20230328142107990,None,118,71,179,145,73,47,612,265
1553,2,17.560899734,20230328142108000,None,133,70,201,175,77,49,617,237
1554,2,17.570969105,20230328142108010,None,133,70,201,175,77,49,617,237
1555,2,17.58103013,20230328142108020,None,151,68,198,169,74,47,594,255
1556,2,17.590991974,20230328142108030,None,151,68,198,169,74,47,594,255
1557,2,17.601036548,20230328142108040,None,151,68,198,169,74,47,594,255
1558,2,17.610981941,20230328142108050,None,155,71,212,168,63,64,536,255
1559,2,17.621457815,20230328142108060,None,163,70,223,203,65,72,535,254
1560,2,17.631076812,20230328142108070,None,163,70,223,203,65,72,535,254
1561,2,17.641056299,20230328142108080,None,157,71,220,203,67,74,602,245
1562,2,17.650990247,20230328142108090,None,157,71,220,203,67,74,602,245
1563,2,17.660979271,20230328142108100,None,157,71,220,203,67,74,602,245
1564,2,17.670968294,20230328142108110,None,144,71,216,187,69,72,564,220
1565,2,17.680976391,20230328142108120,None,143,79,216,201,72,77,583,180
1566,2,17.69103384,20230328142108130,None,143,79,216,201,72,77,583,180
1567,2,17.701036215,20230328142108140,None,143,79,216,201,72,77,583,180
1568,2,17.711042404,20230328142108150,None,156,77,220,211,71,65,645,159
1569,2,17.721010685,20230328142108160,None,156,77,220,211,71,65,645,159
1570,2,17.730970382,20230328142108170,None,154,87,220,223,72,60,652,223
1571,2,17.740943432,20230328142108180,None,156,82,256,224,73,60,610,233
1572,2,17.750910997,20230328142108190,None,156,82,256,224,73,60,610,233
1573,2,17.760898351,20230328142108200,None,156,82,256,224,73,60,610,233
1574,2,17.770885467,20230328142108210,None,156,86,248,225,69,67,649,232
1575,2,17.780883789,20230328142108220,None,156,86,248,225,69,67,649,232
1576,2,17.790964842,20230328142108230,None,147,79,249,224,68,65,692,240
1577,2,17.800889015,20230328142108240,None,126,87,246,217,67,63,633,242
1578,2,17.810932398,20230328142108250,None,126,87,246,217,67,63,633,242
1579,2,17.820926189,20230328142108260,None,114,80,262,199,72,64,728,223
1580,2,17.830964565,20230328142108270,None,114,80,262,199,72,64,728,223
1581,2,17.841035603999998,20230328142108280,None,114,80,262,199,72,64,728,223
1582,2,17.851052284,20230328142108290,None,140,172,249,200,75,64,779,234
1583,2,17.861011743,20230328142108300,None,149,190,346,218,72,56,746,240
1584,2,17.870950222,20230328142108310,None,149,190,346,218,72,56,746,240
1585,2,17.880962372,20230328142108320,None,144,195,357,214,73,53,706,248
1586,2,17.8909626,20230328142108330,None,144,195,357,214,73,53,706,248
1587,2,17.900958776,20230328142108340,None,144,195,357,214,73,53,706,248
1588,2,17.910959244,20230328142108350,None,160,197,345,219,71,53,730,303
1589,2,17.920963049,20230328142108360,None,166,196,349,222,77,53,609,287
1590,2,17.930962324,20230328142108370,None,166,196,349,222,77,53,609,287
1591,2,17.940963745,20230328142108380,None,180,134,342,230,72,52,583,276
1592,2,17.950968265,20230328142108390,None,180,134,342,230,72,52,583,276
1593,2,17.960957288,20230328142108400,None,180,134,342,230,72,52,583,276
1594,2,17.970947027,20230328142108410,None,179,107,249,215,78,54,642,299
1595,2,17.980961323,20230328142108420,None,195,98,250,208,78,56,628,293
1596,2,17.990945101,20230328142108430,None,195,98,250,208,78,56,628,293
1597,2,18.000953436,20230328142108440,None,181,84,242,202,84,53,641,248
1598,2,18.010966062,20230328142108450,None,181,84,242,202,84,53,641,248
1599,2,18.020959854,20230328142108460,None,181,84,242,202,84,53,641,248
1600,2,18.03096652,20230328142108470,None,186,90,224,189,75,55,661,271
1601,2,18.040963888,20230328142108480,None,156,81,211,205,74,58,647,269
1602,2,18.050965309,20230328142108490,None,156,81,211,205,74,58,647,269
1603,2,18.060964346,20230328142108500,None,151,82,219,216,68,60,572,243
1604,2,18.071006536,20230328142108510,None,151,82,219,216,68,60,572,243
1605,2,18.081205129,20230328142108520,None,151,82,219,216,68,60,572,243
1606,2,18.090946197,20230328142108530,None,131,85,281,241,67,68,607,274
1607,2,18.100964069,20230328142108540,None,133,88,294,238,60,71,627,254
1608,2,18.111243486,20230328142108550,None,133,88,294,238,60,71,627,254
1609,2,18.120929718,20230328142108560,None,133,88,294,238,60,71,627,254
1610,2,18.131082535,20230328142108570,None,119,77,291,232,65,67,628,209
1611,2,18.14094162,20230328142108580,None,119,77,291,232,65,67,628,209
1612,2,18.15094614,20230328142108590,None,112,73,298,226,62,63,642,233
1613,2,18.160960436,20230328142108600,None,112,73,298,226,62,63,642,233
1614,2,18.171023369,20230328142108610,None,151,73,301,213,65,60,737,272
1615,2,18.180984497,20230328142108620,None,157,70,237,193,63,56,763,257
1616,2,18.190957546,20230328142108630,None,157,70,237,193,63,56,763,257
1617,2,18.200964689,20230328142108640,None,157,70,237,193,63,56,763,257
1618,2,18.211023092,20230328142108650,None,160,66,233,226,69,55,759,271
1619,2,18.220991134,20230328142108660,None,166,63,223,238,73,55,778,286
1620,2,18.230995655,20230328142108670,None,166,63,223,238,73,55,778,286
1621,2,18.241140842,20230328142108680,None,172,65,221,228,75,58,781,263
1622,2,18.251241922,20230328142108690,None,172,65,221,228,75,58,781,263
1623,2,18.261007309,20230328142108700,None,172,65,221,228,75,58,781,263
1624,2,18.271004677,20230328142108710,None,160,60,205,230,82,56,716,225
1625,2,18.280978441,20230328142108720,None,156,59,210,220,94,54,708,197
1626,2,18.291219473,20230328142108730,None,156,59,210,220,94,54,708,197
1627,2,18.301010132,20230328142108740,None,166,61,214,184,91,52,661,179
1628,2,18.31099987,20230328142108750,None,166,61,214,184,91,52,661,179
1629,2,18.320878982,20230328142108760,None,159,110,201,177,82,58,716,161
1630,2,18.330887079,20230328142108770,None,159,110,201,177,82,58,716,161
1631,2,18.340933799,20230328142108780,None,161,120,193,174,83,62,681,180
1632,2,18.350981712,20230328142108790,None,161,120,193,174,83,62,681,180
1633,2,18.36095953,20230328142108800,None,161,120,193,174,83,62,681,180
1634,2,18.371079206,20230328142108810,None,143,124,214,165,82,62,664,171
1635,2,18.380984068,20230328142108820,None,143,124,214,165,82,62,664,171
1636,2,18.390972852,20230328142108830,None,142,125,198,166,72,62,629,166
1637,2,18.401268244,20230328142108840,None,142,125,198,166,72,62,629,166
1638,2,18.410976648,20230328142108850,None,133,131,188,183,70,61,651,168
1639,2,18.421140432,20230328142108860,None,133,131,188,183,70,61,651,168
1640,2,18.431045532,20230328142108870,None,141,101,183,166,76,56,544,156
1641,2,18.441005468,20230328142108880,None,141,101,183,166,76,56,544,156
1642,2,18.451014757,20230328142108890,None,150,91,189,159,75,50,502,127
1643,2,18.461242437,20230328142108900,None,150,91,189,159,75,50,502,127
1644,2,18.471008777,20230328142108910,None,157,87,160,158,77,49,555,121
1645,2,18.481003999,20230328142108920,None,157,87,160,158,77,49,555,121
1646,2,18.49098444,20230328142108930,None,183,83,163,156,74,48,544,141
1647,2,18.500957727,20230328142108940,None,183,83,163,156,74,48,544,141
1648,2,18.510948181,20230328142108950,None,179,73,148,139,74,52,531,146
1649,2,18.521099806,20230328142108960,None,179,73,148,139,74,52,531,146
1650,2,18.53098917,20230328142108970,None,173,66,153,164,68,48,515,170
1651,2,18.540952205,20230328142108980,None,190,57,139,160,69,49,544,171
1652,2,18.551006794,20230328142108990,None,190,57,139,160,69,49,544,171
1653,2,18.560954332,20230328142109000,None,190,57,139,160,69,49,544,171
1654,2,18.570954799,20230328142109010,None,193,52,144,148,55,53,527,187
1655,2,18.580955982,20230328142109020,None,193,52,144,148,55,53,527,187
1656,2,18.590956210999998,20230328142109030,None,170,56,135,148,53,52,535,172
1657,2,18.600952863,20230328142109040,None,165,56,132,148,57,56,561,194
1658,2,18.610944986,20230328142109050,None,165,56,132,148,57,56,561,194
1659,2,18.620980262,20230328142109060,None,165,56,132,148,57,56,561,194
1660,2,18.630989551,20230328142109070,None,164,62,140,127,60,59,574,177
1661,2,18.640987634,20230328142109080,None,164,62,140,127,60,59,574,177
1662,2,18.650945186,20230328142109090,None,136,66,158,142,56,62,585,184
1663,2,18.660945415,20230328142109100,None,133,67,152,146,60,64,606,171
1664,2,18.670981884,20230328142109110,None,133,67,152,146,60,64,606,171
1665,2,18.680976629,20230328142109120,None,133,67,152,146,60,64,606,171
1666,2,18.690956831,20230328142109130,None,136,68,159,141,61,64,565,177
1667,2,18.701566219,20230328142109140,None,136,68,159,141,61,64,565,177
1668,2,18.710962772,20230328142109150,None,155,65,174,143,56,61,558,143
1669,2,18.720957517,20230328142109160,None,161,67,160,141,63,61,567,144
1670,2,18.730942964,20230328142109170,None,161,67,160,141,63,61,567,144
1671,2,18.740956783,20230328142109180,None,161,67,160,141,63,61,567,144
1672,2,18.750947475,20230328142109190,None,169,65,152,124,64,58,613,131
1673,2,18.760943651,20230328142109200,None,169,65,152,124,64,58,613,131
1674,2,18.770975589,20230328142109210,None,158,62,159,121,62,53,554,130
1675,2,18.780986547,20230328142109220,None,149,64,164,126,60,52,612,174
1676,2,18.79095912,20230328142109230,None,149,64,164,126,60,52,612,174
1677,2,18.800942421,20230328142109240,None,149,64,164,126,60,52,612,174
1678,2,18.810944795,20230328142109250,None,151,72,156,124,66,55,606,191
1679,2,18.820958614,20230328142109260,None,151,72,156,124,66,55,606,191
1680,2,18.830960989,20230328142109270,None,159,69,173,119,57,60,607,290
1681,2,18.841074705,20230328142109280,None,143,67,167,115,58,60,548,313
1682,2,18.850947618,20230328142109290,None,143,67,167,115,58,60,548,313
1683,2,18.860939741,20230328142109300,None,143,67,167,115,58,60,548,313
1684,2,18.870946407,20230328142109310,None,149,73,163,111,62,67,574,313
1685,2,18.881016254,20230328142109320,None,149,73,163,111,62,67,574,313
1686,2,18.890896559,20230328142109330,None,151,75,145,129,66,68,582,289
1687,2,18.900890827,20230328142109340,None,138,69,139,140,64,65,572,287
1688,2,18.910918474,20230328142109350,None,138,69,139,140,64,65,572,287
1689,2,18.92089343,20230328142109360,None,138,69,139,140,64,65,572,287
1690,2,18.93088603,20230328142109370,None,137,65,119,142,66,61,548,186
1691,2,18.940918445,20230328142109380,None,137,65,119,142,66,61,548,186
1692,2,18.95089364,20230328142109390,None,140,68,140,142,71,68,565,146
1693,2,18.960906982,20230328142109400,None,137,62,131,148,69,61,595,146
1694,2,18.970889806,20230328142109410,None,137,62,131,148,69,61,595,146
1695,2,18.980887174,20230328142109420,None,137,62,131,148,69,61,595,146
1696,2,18.990896702,20230328142109430,None,135,53,143,136,65,60,572,216
1697,2,19.000913381,20230328142109440,None,135,53,143,136,65,60,572,216
1698,2,19.010899782,20230328142109450,None,135,53,143,136,65,60,572,216
1699,2,19.020884037,20230328142109460,None,142,54,168,122,66,62,650,218
1700,2,19.03089714,20230328142109470,None,131,57,172,131,66,60,641,218
1701,2,19.040904283,20230328142109480,None,131,57,172,131,66,60,641,218
1702,2,19.050889492,20230328142109490,None,143,52,159,143,61,50,615,224
1703,2,19.060892105,20230328142109500,None,143,52,159,143,61,50,615,224
1704,2,19.070890188,20230328142109510,None,160,60,173,153,64,54,583,225
1705,2,19.080894708,20230328142109520,None,160,60,173,153,64,54,583,225
1706,2,19.090956688,20230328142109530,None,168,61,182,156,64,55,566,158
1707,2,19.100914955,20230328142109540,None,168,61,182,156,64,55,566,158
1708,2,19.110902071,20230328142109550,None,161,62,155,150,58,49,432,149
1709,2,19.120896578,20230328142109560,None,161,62,155,150,58,49,432,149
1710,2,19.130889177,20230328142109570,None,159,62,154,157,60,48,508,148
1711,2,19.140888214,20230328142109580,None,159,62,154,157,60,48,508,148
1712,2,19.150895357,20230328142109590,None,143,64,156,149,59,52,543,184
1713,2,19.16088891,20230328142109600,None,143,64,156,149,59,52,543,184
1714,2,19.170907497,20230328142109610,None,139,64,148,141,55,46,535,187
1715,2,19.180896997,20230328142109620,None,139,64,148,141,55,46,535,187
1716,2,19.190905094,20230328142109630,None,122,78,137,147,72,49,566,195
1717,2,19.200897693,20230328142109640,None,122,78,137,147,72,49,566,195
1718,2,19.210895538,20230328142109650,None,119,83,140,158,76,50,613,211
1719,2,19.22088623,20230328142109660,None,119,83,140,158,76,50,613,211
1720,2,19.230940342,20230328142109670,None,118,81,136,138,73,52,535,219
1721,2,19.240964412,20230328142109680,None,118,81,136,138,73,52,535,219
1722,2,19.25096941,20230328142109690,None,122,82,141,150,70,52,509,185
1723,2,19.261483431,20230328142109700,None,122,82,141,150,70,52,509,185
1724,2,19.270951509,20230328142109710,None,105,78,133,145,71,56,536,191
1725,2,19.280961752,20230328142109720,None,105,78,133,145,71,56,536,191
1726,2,19.290947914,20230328142109730,None,120,63,128,128,59,55,532,194
1727,2,19.30091381,20230328142109740,None,120,63,128,128,59,55,532,194
1728,2,19.310968637,20230328142109750,None,114,57,126,117,53,54,559,179
1729,2,19.321267128,20230328142109760,None,114,57,126,117,53,54,559,179
1730,2,19.330966949,20230328142109770,None,118,69,128,141,53,56,604,176
1731,2,19.340975761,20230328142109780,None,118,69,128,141,53,56,604,176
1732,2,19.350922584,20230328142109790,None,115,66,136,129,54,54,608,176
1733,2,19.360968113,20230328142109800,None,115,66,136,129,54,54,608,176
1734,2,19.370965957,20230328142109810,None,106,66,150,133,52,53,613,176
1735,2,19.38096404,20230328142109820,None,106,66,150,133,52,53,613,176
1736,2,19.390983343,20230328142109830,None,96,66,147,142,46,55,588,174
1737,2,19.400939703,20230328142109840,None,96,66,147,142,46,55,588,174
1738,2,19.410964489,20230328142109850,None,97,69,153,143,48,57,564,170
1739,2,19.420963764,20230328142109860,None,97,69,153,143,48,57,564,170
